0
0
0
0
0
0
0
0
0
0
0
0
0
0
0
0
0
0
0
0
0
0
0
0
0
0
0
0
0
0
0
0
0
0
0
0
0
0
0
0
0
0
0
0
0
0
0
0
0
0
0
0
0
0
0
0
0
0
0
0
0
0
0
0
0
0
0
0
0
0
0
0
0
0
0
0
0
0
0
0
0
0
0
0
0
0
0
0
0
0
0
0
0
0
0
0
0
0
0
0
0
0
0
0
0
0
0
0
0
0
0
0
0
0
0
0
0
0
0
0
0
0
0
0
0
0
0
0
0
0
0
0
0
0
0
0
0
0
0
0
0
0
0
0
0
0
0
0
0
0
0
0
0
0
0
0
0
0
0
0
0
0
0
0
0
0
0
0
0
0
0
0
0
0
0
0
0
0
0
0
0
0
0
0
0
0
0
0
0
0
0
0
0
0
0
0
0
0
0
0
0
0
0
0
0
0
0
0
0
0
0
0
0
0
0
0
0
0
0
0
0
0
0
0
0
0
0
0
0
0
0
0
0
0
0
0
0
0
0
0
0
0
0
0
0
0
0
0
0
0
0
0
0
0
0
0
0
0
0
0
0
0
0
0
0
0
0
0
0
0
0
0
0
0
0
0
0
0
0
0
0
0
0
0
0
0
0
0
0
0
0
0
0
0
0
0
0
0
0
0
0
0
0
0
0
0
0
0
0
0
0
0
0
0
0
0
0
0
0
0
0
0
0
0
0
0
0
0
0
0
0
0
0
0
0
0
0
0
0
0
0
0
0
0
0
0
0
0
0
0
0
0
0
0
0
0
0
0
0
0
0
0
0
0
0
0
0
0
0
0
0
0
0
0
0
0
0
0
0
0
0
0
0
0
0
0
0
0
0
0
0
0
0
0
0
0
0
0
0
0
0
0
0
0
0
0
0
0
0
0
0
0
0
0
0
0
0
0
0
0
0
0
0
0
0
0
0
0
0
0
0
0
0
0
0
0
0
0
0
0
0
0
0
0
0
0
0
0
0
0
0
0
0
0
0
0
0
0
0
0
0
0
0
0
0
0
0
0
0
0
0
0
0
0
0
0
0
0
0
0
0
0
0
0
0
0
0
0
0
0
0
0
0
0
0
0
0
0
0
0
0
0
0
0
0
0
0
0
0
0
0
0
0
0
0
0
0
0
0
0
0
0
0
0
0
0
0
0
0
0
0
0
0
0
0
0
0
0
0
0
0
0
0
0
0
0
0
0
0
0
0
0
0
0
0
0
0
0
0
0
0
0
0
0
0
0
0
0
0
0
0
0
0
0
0
0
0
0
0
0
0
0
0
0
0
0
0
0
0
0
0
0
0
0
0
0
0
0
0
0
0
0
0
0
0
0
0
0
0
0
0
0
0
0
0
0
0
0
0
0
0
0
0
0
0
0
0
0
0
0
0
0
0
0
0
0
0
0
0
0
0
0
0
0
0
0
0
0
0
0
0
0
0
0
0
0
0
0
0
0
0
0
0
0
0
0
0
0
0
0
0
0
0
0
0
0
0
0
0
0
0
0
0
0
0
0
0
0
0
0
0
0
0
0
0
0
0
0
0
0
0
0
0
0
0
0
0
0
0
0
0
0
0
0
0
0
0
0
0
0
0
0
0
0
0
0
0
0
0
0
0
0
0
0
0
0
0
0
0
0
0
0
0
0
0
0
0
0
0
0
0
0
0
0
0
0
0
0
0
0
0
0
0
0
0
0
0
0
0
0
0
0
0
0
0
0
0
0
0
0
0
0
0
0
0
0
0
0
0
0
0
0
0
0
0
0
0
0
0
0
0
0
0
0
0
0
0
0
0
0
0
0
0
0
0
0
0
0
0
0
0
0
0
0
0
0
0
0
0
0
0
0
0
0
0
0
0
0
0
0
0
0
0
0
0
0
0
0
0
0
0
0
0
0
0
0
0
0
0
0
0
0
0
0
0
0
0
0
0
0
0
0
0
0
0
0
0
0
0
0
0
0
0
0
0
0
0
0
0
0
0
0
0
0
0
0
0
0
0
0
0
0
0
0
0
0
0
0
0
0
0
0
0
0
0
0
0
0
0
0
0
0
0
0
0
0
0
0
0
0
0
0
0
0
0
0
0
0
0
0
0
0
0
0
0
0
0
0
0
0
0
0
0
0
0
0
0
0
0
0
0
0
0
0
0
0
0
0
0
0
0
0
0
0
0
0
0
0
0
0
0
0
0
0
0
0
0
0
0
0
0
0
0
0
0
0
0
0
0
0
0
0
0
0
0
0
0
0
0
0
0
0
0
0
0
0
0
0
0
0
0
0
0
0
0
0
0
0
0
0
0
0
0
0
0
0
0
0
0
0
0
0
0
0
0
0
0
0
0
0
0
0
0
0
0
0
0
0
0
0
0
0
0
0
0
0
0
0
0
0
0
0
0
0
0
0
0
0
0
0
0
0
0
0
0
0
0
0
0
0
0
0
0
0
0
0
0
0
0
0
0
0
0
0
0
0
0
0
0
0
0
0
0
0
0
0
0
0
0
0
0
0
0
0
0
0
0
0
0
0
0
0
0
0
0
0
0
0
0
0
0
0
0
0
0
0
0
0
0
0
0
0
0
0
0
0
0
0
0
0
0
0
0
0
0
0
0
0
0
0
0
0
0
0
0
0
0
0
0
0
0
0
0
0
0
0
0
0
0
0
0
0
0
0
0
0
0
0
0
0
0
0
0
0
0
0
0
0
0
0
0
0
0
0
0
0
0
0
0
0
0
0
0
0
0
0
0
0
0
0
0
0
0
0
0
0
0
0
0
0
0
0
0
0
0
0
0
0
0
0
0
0
0
0
0
0
0
0
0
0
0
0
0
0
0
0
0
0
0
0
0
0
0
0
0
0
0
0
0
0
0
0
0
0
0
0
0
0
0
0
0
0
0
0
0
0
0
0
0
0
0
0
0
0
0
0
0
0
0
0
0
0
0
0
0
0
0
0
0
0
0
0
0
0
0
0
0
0
0
0
0
0
0
0
0
0
0
0
0
0
0
0
0
0
0
0
0
0
0
0
0
0
0
0
0
0
0
0
0
0
0
0
0
0
0
0
0
0
0
0
0
0
0
0
0
0
0
0
0
0
0
0
0
0
0
0
0
0
0
0
0
0
0
0
0
0
0
0
0
0
0
0
0
0
0
0
0
0
0
0
0
0
0
0
0
0
0
0
0
0
0
0
0
0
0
0
0
0
0
0
0
0
0
0
0
0
0
0
0
0
0
0
0
0
0
0
0
0
0
0
0
0
0
0
0
0
0
0
0
0
0
0
0
0
0
0
0
0
0
0
0
0
0
0
0
0
0
0
0
0
0
0
0
0
0
0
0
0
0
0
0
0
0
0
0
0
0
0
0
0
-1053149,55776978
-1400897,8455658
-575106,312973022
271804,103553772
77190,6950683594
-868274,783691406
-1075487,11184692
-150428,464256287
707808,916488647
392294,300582886
-671971,223297119
-957186,53793335
-153522,017364502
602612,840507507
276433,18901062
-798578,608917236
-1102743,1096344
-220417,227973938
659380,618339539
417990,463821411
-512868,149108887
-657876,287643433
180015,231742859
904901,421318054
595419,485015869
-431095,571746826
-716691,97315979
140392,027664185
983861,226028442
768996,295822144
-45653,7253723145
-119779,989135742
625456,517791748
1221975,88118744
906771,335021973
-41506,9110107422
-295207,467575073
497276,282867432
1210409,38961792
878598,48210144
81866,7702636719
96828,8165588379
827286,271957397
1372261,21304321
1098535,44511414
247711,601013184
65437,8145904541
854953,37298584
1492662,81485748
1033515,64198303
43303,558013916
-116238,335006714
603557,967308044
1276830,03270721
1134922,8846283
291390,091339111
-28673,5767059326
592942,993492126
1149172,06898499
708131,729125977
-232440,163909912
-346472,172042847
407257,449462891
1056093,77558136
832818,025253296
-51858,2520141602
-312157,769241333
436918,156463623
1104544,65490723
673385,256103516
-389490,430023193
-635888,847640991
122468,817581177
799186,114395142
471545,127334595
-562237,405029297
-879744,698242188
-85371,0113983154
687672,630409241
376545,140060425
-646649,660797119
-926907,66947937
-139312,03603363
609589,805500031
297777,883453369
-756119,790802002
-1081482,27734375
-274059,961761475
523424,720375061
246886,009124756
-728725,619354248
-965991,701171875
-161379,998970032
590414,166542053
280793,036315918
-769447,920440674
-1062846,26365662
-181897,905937195
703412,893737793
476663,101486206
-537016,385559082
-869764,977081299
-124822,785041809
659145,538669586
447947,706207275
-537915,014038086
-848462,6065979
-10313,3610916138
834048,39144516
564653,258666992
-428270,444122314
-677514,272903442
90840,9437713623
851202,476997375
668896,48147583
-282249,938049316
-638264,03302002
100833,146011353
879354,283607483
633829,829986572
-227218,838684082
-352601,671600342
363806,652908325
989212,819328308
763224,643890381
-160006,621520996
-497001,754211426
215073,533447266
922706,706207275
587814,82232666
-385198,123016357
-614773,337661743
80146,1496124268
742249,434360504
529444,688079834
-419827,790039063
-775584,769897461
-46186,071647644
678217,64478302
344403,415130615
-562378,807891846
-676195,060028076
44703,0466308594
667246,168758392
470452,122741699
-384673,791381836
-604128,886169434
257090,720321655
1055897,76370239
709942,11100769
-252628,565460205
-430591,317489624
207064,071861267
769513,207424164
579783,598510742
-248354,13760376
-497675,192947388
275512,93270874
998952,429367065
615077,586196899
-421954,628814697
-686150,857788086
-17317,732093811
651539,310409546
518980,235733032
-326239,875854492
-620537,60194397
136100,18536377
886511,187889099
587850,123977661
-265700,982574463
-350826,971832275
319821,090927124
868268,046150208
637340,529815674
-238687,842529297
-507694,284896851
285274,991195679
1046142,43224335
716851,073104858
-211202,85043335
-367535,831451416
298391,12752533
894894,316955566
721584,908676147
-114931,966583252
-400691,801849365
316181,89315033
995931,428779602
671504,069869995
-103336,232391357
-91926,1602630615
573727,58164978
1078338,32803345
869160,646743774
37391,1973571777
-274500,820053101
385593,320167542
1013926,29253006
627073,31111145
-269092,723419189
-377408,954330444
288074,006484985
907553,885341644
861842,516159058
155398,045471191
-124367,540588379
516941,642463684
1147589,97652054
815119,983215332
-59599,6323242188
-234580,597549438
352413,225669861
910788,711009979
811967,344970703
72973,46484375
-213147,411483765
475782,248832703
1211774,25007629
1011420,40431213
275224,723266602
171711,264328003
698769,638565063
1126547,20531464
904581,235366821
70573,2967529297
-316145,027923584
217718,605285645
761495,006225586
399486,620376587
-367178,693847656
-343568,543228149
336419,050193787
832026,072166443
525669,125839233
-568159,757293701
-1224467,94929504
-805335,69455719
-263446,117366791
-625848,707504272
-1396183,51376343
-1328378,62174988
-573260,50352478
46810,1783866882
13497,8580627441
-659408,643508911
-863171,181762695
-57906,1427459717
724771,357357025
396711,287094116
-527573,3934021
-738036,085250854
-295842,223487854
101243,787807465
8865,99409484863
-608911,806762695
-760439,21244812
44132,530090332
810141,786972046
489835,277557373
-407610,029174805
-605861,865890503
-172329,238525391
213227,672111511
104573,610565186
-562037,737335205
-789547,061599731
-30987,0951538086
758142,995708466
536178,330917358
-216163,949737549
-320007,418777466
105242,203369141
460307,286052704
377802,809814453
-224692,125732422
-436826,586120605
234461,014572144
885980,275508881
574771,800643921
-180589,079040527
-240755,816879272
234059,41999054
622426,653659821
530903,525436401
-127311,785430908
-416857,911026001
179794,185966492
768849,873806
424037,591964722
-300322,327392578
-275575,477218628
277356,585144043
712714,691303253
653933,198623657
12754,5225219727
-299509,033859253
242929,55241394
791544,490226746
444715,306884766
-282271,472290039
-280127,664794922
271642,636894226
724504,57925415
678369,830337524
56941,1199951172
-233534,031478882
313218,745796204
870039,958808899
555553,728149414
-158158,558197021
-181377,791946411
347557,233428955
798752,896450043
773425,429244995
159619,495666504
-169071,314086914
346028,977554321
916406,831996918
641978,56338501
-46033,8933105469
-79283,7751159668
423255,66973114
829450,583686829
729640,420654297
30524,5537414551
-372744,580276489
102407,013198853
686310,264015198
462911,068267822
-151953,714660645
-118684,449630737
390880,542198181
761872,256671906
626221,864868164
-116413,235809326
-576323,485702515
-165097,30909729
339981,660163879
9862,56809997559
-715568,338317871
-718785,916931152
-148288,271492004
309825,859909058
228049,587173462
-501343,468429565
-932399,237487793
-414359,339935303
242787,483287811
-17998,873046875
-863415,748718262
-1059857,41938782
-557871,002952576
-56087,3598899841
-71955,3066558838
-746157,186462402
-1139124,75938416
-582830,005348206
114843,822395325
-119847,444961548
-989505,349060059
-1246225,15821838
-769163,54208374
-270086,849136353
-309567,762115479
-991049,403900146
-1315921,88696289
-614400,986122131
252684,046321869
154943,482635498
-623491,029144287
-856518,392150879
-451275,657341003
-51539,6748352051
-125881,102035522
-756212,315765381
-995468,925125122
-253102,973312378
585002,591861725
424159,726425171
-423561,995361328
-702119,835220337
-274292,043884277
173298,132362366
91657,0421905518
-583253,594726563
-867796,942199707
-182909,584243774
608945,654747009
459086,186965942
-330041,829162598
-539626,941314697
-35794,8199081421
486790,168727875
450202,557235718
-233010,691101074
-605595,86618042
-73774,4516525269
576212,474552155
361816,319961548
-427764,527984619
-598978,330383301
-8147,53715515137
623150,171443939
673385,867370605
-20619,6513061523
-531390,807754517
-145012,38192749
454392,318508148
277366,760528564
-451665,655792236
-590038,907821655
1954,33139038086
601703,925487518
599347,761779785
-113636,857940674
-573156,72895813
-99125,9275817871
569480,68384552
409175,717605591
-355502,022537231
-545034,583358765
13078,0989990234
593300,473503113
569916,085067749
-180848,191802979
-698039,603179932
-273673,721099854
385122,099376678
248192,851486206
-480448,991165161
-638169,082077026
-83188,4356689453
460007,007354736
395192,560974121
-369203,643173218
-846042,262771606
-355270,515327454
338304,677986145
202691,835998535
-508979,326660156
-653975,786056519
-145713,338531494
339352,534740448
279550,736862183
-415153,343383789
-796499,832260132
-230616,220085144
475318,912807465
250979,714523315
-683503,416275024
-1053960,17842102
-564933,565811157
41403,7175216675
62566,3760223389
-614750,507293701
-985372,875595093
-388298,157829285
370653,913452148
209386,997528076
-692104,173629761
-1058104,46199036
-554440,056442261
55670,3628501892
22955,6613922119
-766531,526489258
-1245869,63954163
-670213,478218079
160470,138103485
101476,307937622
-690203,436035156
-966777,188735962
-450315,830993652
130425,224746704
110523,003356934
-597879,798233032
-974283,104614258
-337631,365692139
514960,940479279
475139,486114502
-349341,060119629
-739028,250991821
-306644,884666443
266160,371395111
260812,926574707
-418927,635223389
-763575,491592407
-145317,992218018
634315,621601105
519125,011672974
-385862,043182373
-833947,933319092
-335105,623588562
366554,978652954
412313,61932373
-292283,150939941
-683093,732269287
-107511,59627533
653403,85823822
565409,833435059
-300450,218704224
-721002,778640747
-163890,543457031
598094,356063843
616649,571975708
-234861,054870605
-825233,117141724
-381912,364471436
379799,861820221
398385,13684082
-326682,133041382
-630402,907974243
-21679,5296630859
731211,309913635
721063,941177368
-173383,322769165
-825370,889953613
-432852,425773621
292510,150819778
274792,68611145
-424169,263137817
-642405,457122803
-19903,6027145386
674339,552667618
649541,48236084
-180632,801071167
-747121,709854126
-307108,821655273
416567,237472534
350272,302093506
-417189,437149048
-698571,344772339
-147976,729545593
484561,905031204
444508,626266479
-351322,386779785
-844153,203842163
-322541,885231018
441092,559696198
327891,91583252
-626105,421951294
-1137658,32627869
-638196,464927673
103535,20507431
154896,048873901
-601515,7056427
-1044796,56112671
-452071,957328796
373650,904310226
301294,312057495
-648768,317886353
-1183532,81698608
-685046,554672241
83732,1751289368
156688,671203613
-606968,641647339
-1075684,60444641
-488442,465644836
369789,829938889
357958,09173584
-505522,782012939
-956492,181106567
-451234,663162231
257259,638948441
296325,101531982
-460557,667648315
-938967,105926514
-371289,192604065
491845,26716423
494987,685119629
-378676,883056641
-866886,212585449
-386135,684921265
313471,816513062
327381,021255493
-456606,634155273
-925001,860778809
-316408,207206726
593046,205190659
641106,374542236
-170568,137664795
-591170,510131836
-95457,568031311
575690,367593765
573648,108047485
-206215,492263794
-680729,969177246
-119554,270004272
704874,708621979
689075,597320557
-153004,913787842
-601871,250686646
-92441,7075195313
644453,941015244
708489,497314453
-39668,2355041504
-538500,288360596
-42718,4296569824
727661,146209717
703674,172134399
-97978,9543151855
-484931,24130249
59288,784072876
789571,418645859
823048,67276001
15565,6229248047
-571882,535369873
-147020,01071167
605611,74454689
598365,230529785
-202785,476547241
-618523,392501831
-78157,9564056396
680035,949754715
715825,719146729
-122537,950592041
-726024,892669678
-293837,197631836
451716,29914093
408294,540252686
-372428,46875
-670979,095336914
-63244,3822174072
668371,946427345
696831,891143799
-111778,054122925
-698422,89666748
-257692,693283081
496318,083519936
422605,538742065
-462727,818908691
-893434,613891602
-352813,627922058
377772,731103897
416595,028930664
-374565,073318481
-919602,538452148
-430147,190040588
361235,159883499
313726,758422852
-565296,996734619
-1012951,97096252
-498874,794113159
213333,956630707
267186,747970581
-461047,063171387
-904207,795852661
-290807,093490601
616486,357284546
636049,03074646
-237197,074172974
-725452,784179688
-285432,444412231
355099,249778748
366303,287200928
-413078,688842773
-945480,212081909
-442015,234207153
339031,37387085
217434,381240845
-762336,360229492
-1234998,93812561
-658244,398361206
111176,855974197
136379,450698853
-729976,182876587
-1319462,53579712
-719492,596542358
302717,107782364
459265,615127563
-320899,607162476
-765643,803878784
-317806,650802612
334398,781812668
441905,983474731
-116202,000320435
-380258,752731323
339237,229598999
1267318,97801018
1285215,24005127
418920,749633789
-114565,360626221
243830,766571045
829790,138271332
837077,146011353
125270,401153564
-321007,594894409
209737,707321167
1016515,87353611
1020380,12133789
186859,291275024
-271732,696899414
245046,276535034
998447,595998764
1066075,85339355
282690,725372314
-308412,288650513
87274,2330780029
810342,854707718
803936,000152588
39074,8110961914
-322107,32081604
276290,133712769
1088819,79278564
1199687,83052063
404231,646575928
-296529,697875977
-37655,848449707
615872,358387947
628586,671768188
-7367,99273681641
-200846,327194214
411670,524963379
1096880,6167469
1117269,51873779
323591,158355713
-325234,31463623
3550,43077087402
697305,451220512
652487,733566284
-156054,806243896
-549026,39692688
-28802,8622436523
676638,945165634
754094,377380371
38502,2760162354
-501437,385528564
-62652,1485748291
708108,735517502
706910,345306396
-48634,3454284668
-389367,051605225
79061,662979126
659729,444034576
662021,742355347
-59896,8888549805
-568837,722061157
-78325,6644744873
741523,208379745
734944,034088135
-119719,937759399
-595727,584075928
-184327,967788696
441043,44669342
528585,804931641
-142367,180862427
-660878,624526978
-214640,426147461
533091,838344574
451868,505279541
-445316,582321167
-923627,249542236
-470832,180160522
215406,275611877
383920,160903931
-183038,02104187
-618552,23324585
-89571,5233764648
786631,538032532
834731,997436523
-31716,9274597168
-600259,033630371
-260904,376052856
345818,216125488
443601,88230896
-189557,550033569
-669714,821548462
-171057,586502075
694761,879810333
797610,410812378
97332,7794036865
-269599,997360229
132417,670974731
672078,530139923
741156,117538452
168730,33493042
-257879,856536865
225632,831878662
1035628,20225143
1092165,83073425
389340,334457397
35388,9339904785
420890,856384277
923132,957760811
959787,899703979
345007,290863037
-179214,491790771
177962,462478638
920670,348118782
983396,373580933
351053,253845215
103188,923416138
542710,887435913
1045027,75359535
1077596,07342529
447721,961273193
-119222,444366455
161441,364562988
783829,547278404
709842,634246826
-12292,9967346191
-269391,655288696
232329,198806763
821336,805754662
909693,549285889
272491,551391602
-352400,502487183
-135083,471679688
448305,372754574
368927,032455444
-305661,292098999
-489395,3072052
22199,2624359131
565959,229063988
646567,855163574
61749,7096710205
-478124,669250488
-165910,862182617
478976,994339943
384669,834518433
-383006,145141602
-684775,213806152
-254194,842880249
256087,252494812
355091,857528687
-139481,51473999
-539591,987426758
-81404,2878570557
705002,523878098
718897,738143921
-55512,1059875488
-484189,380584717
-180468,173095703
271900,797926903
353221,423171997
-149013,92527771
-548144,639755249
-97647,0123138428
641621,039973259
611888,426696777
-130739,157180786
-471607,466934204
-103510,760543823
357506,280467033
415515,039382935
-127788,270706177
-606244,602416992
-248624,682754517
457982,058941841
450137,211425781
-304498,102157593
-685643,46333313
-290931,74772644
243225,355867386
326627,632675171
-280015,909286499
-863333,02394104
-552439,689498901
187934,40968132
248082,676727295
-418958,352920532
-714228,918197632
-290274,555526733
222428,42444706
290411,834503174
-291529,569030762
-812795,8644104
-433192,221969604
350598,06985569
407980,99546814
-322502,3934021
-708480,201904297
-327422,507553101
201405,473669052
301175,135269165
-256063,441146851
-762522,514190674
-381314,321655273
392298,269281387
455979,25189209
-245418,759765625
-617424,163787842
-240819,497650146
286141,43507576
387818,472595215
-151858,016540527
-627816,657974243
-233383,872344971
536889,811294556
591717,325210571
-144807,508926392
-564939,830108643
-188303,30897522
384259,60123682
526999,380340576
-4352,1773223877
-515248,37991333
-172659,978515625
572978,151610374
637089,850265503
-112175,827163696
-569152,018066406
-172726,460723877
460852,923281193
628616,262817383
54372,8809509277
-566553,641906738
-362564,213195801
266512,704910755
291961,086288452
-389307,995773315
-726900,039794922
-246575,930526733
392860,326629162
489490,598266602
-190932,900985718
-885767,416000366
-686523,364624023
13553,7405247688
135637,564971924
-500853,173904419
-849931,731750488
-406312,918273926
199976,417252898
301168,628158569
-326816,301025391
-912863,499038696
-566908,020889282
222644,147450447
322300,704681396
-420421,903366089
-899164,440460205
-530869,039764404
70317,4838341512
194510,305770874
-400073,178405762
-945930,079376221
-559865,757873535
278362,500041425
426968,565307617
-307875,169403076
-831301,741485596
-507026,109115601
94949,905583024
273957,14364624
-228866,611190796
-697882,28944397
-271251,924499512
587666,930810213
747748,32244873
47541,4525756836
-426633,39100647
-115454,371871948
418674,008066893
544144,182815552
5258,66703796387
-525171,449752808
-203241,92918396
520280,786393642
557255,76373291
-265118,919235229
-848358,017700195
-487169,506286621
219147,635717392
420151,839935303
-200059,415252686
-859387,176498413
-615851,619308472
127892,153216839
262237,435012817
-519247,976470947
-1133660,21951294
-736161,944915771
63833,877907753
282282,340484619
-412984,957092285
-1129689,04838562
-855086,151168823
-28062,5526847839
214908,070541382
-367802,074157715
-749841,622451782
-307277,997207642
350254,094290733
450619,848556519
-235650,096740723
-870435,11920166
-522473,703643799
329784,15598011
525362,374069214
-150237,39213562
-615574,745101929
-239573,48236084
389730,611773491
553443,615524292
-18280,6995391846
-611289,229858398
-316374,484710693
462035,38698864
585100,480926514
-215022,631118774
-828828,3046875
-491290,486602783
212539,145684242
445523,048095703
-115414,486358643
-712256,964019775
-393323,313812256
425811,138904572
607553,798446655
-127693,608230591
-710570,150039673
-376980,463363647
304843,010216713
491053,255981445
-131509,951324463
-781056,996322632
-516902,321350098
241547,077805519
394821,561203003
-318667,999267578
-858498,948394775
-482392,758850098
228545,411422729
413337,343780518
-217755,796569824
-829664,957824707
-474135,953613281
365493,820801735
522044,944458008
-248497,445083618
-834518,172607422
-463552,215621948
263417,003763199
469014,548477173
-142363,307113647
-755136,875823975
-419217,301055908
426928,172657967
633550,717132568
-115416,377853394
-745956,728469849
-411996,296112061
317231,524853706
512141,719909668
-146619,581344604
-819410,21295166
-538489,926956177
278049,243584633
508571,666351318
-157869,059555054
-690397,230133057
-312243,9112854
409008,904675484
623240,129272461
29239,9243927002
-599181,427581787
-301260,104385376
525712,877732277
748686,605133057
30432,9083862305
-611624,205108643
-317843,902114868
396964,96671772
613581,215209961
15625,3444061279
-581635,637405396
-247724,2631073
610076,858351707
899573,809692383
245418,92427063
-397143,084106445
-130176,829101563
582408,342010498
803401,085899353
199413,144973755
-424453,66758728
-160984,434844971
594277,864545822
785283,695648193
79458,5567779541
-519059,482513428
-142285,581848145
648171,883678436
823993,06451416
-30068,2108917236
-1061192,81402588
-1172269,08215332
-643641,254489899
-553142,211380005
-1239851,15049744
-1661726,87905884
-1054526,42692566
-119280,555768967
189990,417243958
-421001,573287964
-1086062,73428345
-732685,971221924
244003,921865463
598343,638572693
-98179,1894989014
-805781,519317627
-616547,593658447
3811,27494812012
238165,481895447
-239061,457458496
-726312,439651489
-289928,872360229
660784,220529556
921024,5284729
151630,779663086
-544761,611175537
-331250,822280884
264547,581768036
457928,549072266
-50653,2727050781
-573885,524688721
-201850,704086304
674237,643951416
917321,07396698
240763,809158325
-306102,743484497
-18723,1665802002
551683,640357971
703602,167617798
163217,912811279
-403807,402145386
-72827,3275146484
772511,007104874
979650,679519653
281989,17918396
-253305,592910767
65589,0871582031
674437,390676498
861880,231704712
348189,127563477
-238247,424942017
-8467,92457580566
716997,560043335
872774,276306152
159728,742675781
-405046,384048462
-67373,255645752
620601,136146545
857695,141998291
321139,514419556
-317425,730438232
-100008,978652954
666363,254581451
873288,315864563
148778,653167725
-492305,167449951
-172185,749130249
579646,193712234
830106,578994751
212928,780792236
-505203,915115356
-320908,066238403
426644,450057983
638226,215003967
-20097,3578186035
-550022,48135376
-147605,723861694
620246,788385391
849031,493148804
207905,590774536
-527404,622070313
-357675,986480713
390015,775167465
628309,448120117
34344,6492767334
-414977,91960144
-9391,95896911621
674842,665187836
840128,621391296
187386,922805786
-542615,238006592
-349495,750900269
414205,354253769
610226,522865295
-131279,654022217
-791006,287994385
-476663,316329956
277420,16178894
523042,428123474
-112273,800811768
-836259,140930176
-613460,619415283
188012,417684555
405683,463294983
-367817,053451538
-1100859,49523926
-805894,704101563
3940,56976509094
297507,744895935
-309725,558227539
-973730,64276123
-670750,040771484
200490,707519531
468404,52645874
-366851,541351318
-1307248,65982056
-1140144,0484314
-267233,346481323
55954,737953186
-672321,418060303
-1455042,56578064
-1146511,82217407
-155334,264099121
299854,735374451
-350321,139526367
-1187810,25320435
-992423,180801392
-104804,403785706
224051,273796082
-487331,697357178
-1209476,68093872
-846820,089111328
138931,489858627
549174,334533691
-121731,858078003
-926808,271652222
-688187,5103302
213173,194080353
516801,192642212
-237979,692718506
-1001957,8790741
-683977,118530273
276717,832546234
710265,20085907
75318,5332946777
-768479,187774658
-597815,2212677
320963,32403183
651730,634880066
-131647,088088989
-929292,824768066
-666644,959915161
209256,702903748
595552,076919556
-22092,6868591309
-831518,427368164
-608777,858901978
404609,806964874
796229,5027771
-5431,39826965332
-856109,459136963
-663474,201400757
141618,884098053
480329,644180298
-161464,342575073
-947148,631393433
-643063,31993103
465661,374565125
935348,566543579
148700,717498779
-768492,978866577
-639454,576187134
156137,877632141
510803,888671875
-120191,050323486
-921891,713241577
-660214,341842651
411792,128269196
894881,02016449
172923,439254761
-677249,579055786
-500348,738372803
337193,044067383
726355,453117371
126440,766326904
-616948,024581909
-340925,676986694
635361,219936371
1095928,95629883
485732,937316895
-312435,892379761
-165651,680480957
643423,372226715
1004419,67961121
406309,232528687
-272923,526092529
-12318,0187225342
784209,818264008
1134789,18832397
590627,592559814
-154579,822128296
-18155,0565643311
786461,908046722
1133870,48253632
634920,203643799
217798,874130249
522064,834747314
1020609,54794312
1142654,98757172
646814,555892944
52519,38230896
289390,070617676
1104931,35453606
1337437,40167236
547703,258468628
-245420,043624878
-135028,533905029
427017,305427551
701978,55859375
341303,342575073
-127282,098373413
227896,240325928
1125052,74514961
1414509,88204193
721231,564056396
41048,6629333496
169628,698440552
658788,980052948
866256,051605225
486964,965286255
3648,75682067871
286408,801818848
1083338,74408722
1312102,3015976
565851,145904541
-178647,213699341
-21989,9577178955
586999,520629883
845095,020500183
386359,242584229
-201716,865112305
24694,87159729
799259,214452744
1048792,55376434
348925,487289429
-368739,733474731
-147095,058380127
574892,393835068
849002,216773987
257088,726974487
-493819,863098145
-361483,555633545
422732,660646439
785150,892959595
200717,354019165
-482602,679824829
-232034,248794556
562635,751335144
847933,411323547
140211,398269653
-767298,449661255
-734277,182312012
15511,9313774109
384104,835258484
-252762,533340454
-1183987,13040161
-1132092,36297607
-210598,853208542
164895,047332764
-639654,703475952
-1468340,16127014
-1192152,52375793
-256807,555072784
216607,282058716
-370308,283660889
-1432267,6836853
-1582601,22843933
-681379,505714417
-386197,037773132
-1329122,315979
-2082223,57286072
-1713348,13887024
-831716,081874847
-396509,968482971
-867329,67149353
-2014698,83401489
-2904232,81341553
-2970448,44942856
-2929109,94654083
-3203875,9058075
-3263116,6608429
-2902067,66418457
-2444629,67333603
-2208034,66175842
-2287836,9717865
-2558011,61512756
-2802485,46539307
-2888534,71920013
-2859072,90209198
-2858289,29524231
-2993096,8835144
-3262828,19180298
-3547760,01485443
-3664272,3272438
-3462276,70532227
-2930900,0315094
-2242535,40066528
-1665083,06231308
-1403419,04732513
-1528529,25967407
-2001946,31002808
-2651891,65427399
-3210937,48966217
-3444074,18510628
-3227357,25632477
-2617510,22337341
-1855178,22239685
-1228336,56254959
-931102,884839058
-1017825,740242
-1417886,62501526
-1941474,13224792
-2357221,19638824
-2529210,24004221
-2413908,02597427
-2044296,12769318
-1572776,08534622
-1191208,17173004
-1008301,15667868
-1026163,65283203
-1176251,83864594
-1362609,03354263
-1500898,40136719
-1534857,73860741
-1460938,5715065
-1329459,51751137
-1194765,64198685
-1078019,73549652
-960236,932728767
-815009,839767456
-640071,863082409
-458602,600510597
-308714,275323868
-229194,47741127
-256376,234695435
-389163,972983837
-550529,182987928
-324310,878580093
1101233,62460613
3638737,85920906
5982289,39187908
7444547,29509306
8425084,68977451
9392918,88241577
10379255,3794689
11161570,5423751
11549358,1151133
11358204,4570713
10570629,439291
9477455,28441048
8491962,4118824
7928459,64249182
7876875,86493587
8202208,67624474
8641662,97968864
8938659,45814896
8949492,42877007
8681690,84930611
8259699,0852623
7845519,66466522
7557331,21102905
7423394,16249192
7385287,41183472
7175502,18033218
6252537,73543739
4550219,48050117
2893893,99224329
2287573,44950485
2961383,11700058
3958732,30653
4336194,11911964
4210078,1113286
4126794,98361397
4059473,2285614
3642168,31002808
3064954,6980648
2570332,23916149
1911894,44605637
1172829,20417023
904410,916885376
1031479,01389122
1085515,56219864
1090025,32459641
1066361,88988113
1038816,94029236
1368803,62559128
1936458,17684937
2010664,63204193
1058983,33919525
-765030,571144104
-2321448,64485168
-2562795,2016964
-2284217,83339691
-2606804,09641266
-2920155,74692535
-2360838,23413086
-1253655,53883457
-478963,263763428
-617380,698570251
-1680039,46920013
-3243823,08025742
-4734528,26895237
-5690284,68835449
-5922570,87569427
-5557968,37203979
-4918547,15158844
-4324113,79566765
-3941923,91031265
-3493245,52570343
-2148946,79761505
182990,254074097
2294093,50888824
3433481,59181595
3815533,80043793
3422683,5694809
2363550,15103912
1961524,34107399
3112269,90705872
4646791,33435822
5144254,41582489
4581304,157341
3775420,67315292
3454216,77769089
3782199,30187988
4091895,73175049
3828232,61542511
3686869,96008301
4118271,32839584
4373024,03043365
3997448,41452789
3377722,22236633
3059919,13569832
3291490,52518845
3924410,43528748
4505619,784729
4670823,55712891
4484605,45617104
4122388,68605042
3668864,97216034
3286270,19288635
3150586,74784851
3293303,789711
3579284,90667725
3794270,06663513
3768130,58540344
3469898,54424286
3021591,70648384
2619098,54214859
2428797,66388702
2511231,43545532
2792575,76888657
3101511,09525871
3252984,60562897
3058597,1296463
2175916,47928619
604254,874843597
-602949,316245079
-531148,675012589
293083,637573242
923692,675518036
1121678,53445053
1145625,67761326
1246133,18437386
1222740,52772141
641692,67666626
-345524,38265419
-1265345,53120267
-1999232,50105858
-2349233,88599777
-2108649,63168335
-1727502,41522026
-1606007,25490856
-1572595,56590652
-1565452,77908325
-1549666,78641129
-1227051,03181076
-682443,266932487
-346769,987136841
1255981,99127197
6122966,78914261
10288738,7678738
8312766,69091415
2271484,06420517
-2738039,37287903
-4517199,40237808
-3903895,62021422
-3935632,15784073
-7532810,32704163
-14608741,058876
-21662527,6773987
-25184744,7301369
-24279946,9090729
-19930486,8381882
-14050528,8761215
-8475142,99278259
-4245360,24783278
-2296803,19799042
-2954296,85949707
-4968556,41371155
-6996075,08516693
-8895586,14968061
-10783739,3580856
-12420867,7471619
-13705128,1930542
-14686130,1949921
-15154709,2779846
-14880341,3652954
-14029047,2971497
-13037348,9180756
-12230827,0452118
-11807968,3993988
-12052469,9586334
-13001406,5478668
-14164770,8325195
-14799804,9504547
-14299788,2405396
-12448541,9446335
-9456519,3568573
-5889296,62704468
-2439418,08374023
289158,383018494
1920945,83470726
2493424,96898651
2121813,07470703
592405,281387329
-1898606,88592529
-4191533,13652897
-5171978,21471786
-4879427,31703186
-4226851,30571747
-3687627,34490967
-2958897,9288435
-2098213,14376831
-1621422,42885971
-1783873,87828064
-2652523,94115067
-3888982,8174696
-4754526,93798447
-4916647,81159973
-4623253,0335598
-4227830,41892433
-4006394,14598751
-4250652,08335686
-4859847,30256939
-4352912,9735527
-1573301,01101494
1311361,2709713
1682106,26453209
445930,949971199
-384364,191841125
-508359,471776009
-371332,881135941
-550597,142410278
-2207090,06919861
-5767019,24575615
-9224598,73204136
-10042937,0913811
-8467423,67646027
-6695250,17753983
-5703656,19343185
-4953213,93613529
-3889857,19886398
-2458444,8973732
-1100465,51573944
-448688,418510437
-734396,597450256
-1681384,3406291
-2809558,84205246
-3740663,40514374
-4406875,70267487
-4867462,81079483
-4832393,27056789
-3788543,93776131
-1754983,2958374
553708,782684326
2326298,4272995
3221215,48924065
3478609,19628143
3407160,17078781
2845269,47725296
1642995,20399475
341842,350296021
-132849,060016632
641256,824300766
2107555,27908325
3641867,16418076
5454458,55838394
7540264,38025856
8990433,76814321
8921222,7662735
7531830,43351364
6148459,98788071
5557966,11732674
5467612,60028958
5890925,62891388
6802600,24556351
7279972,67444611
6963909,39231491
6594582,63721991
6359359,88774872
5973775,30770874
5805953,5779953
5911622,44428825
5567320,19681263
4822449,57167053
4340129,28306198
3887715,33747864
3276936,7961216
3196586,20708084
3713095,70896149
4412033,72238922
5485142,38014603
6580233,34927177
6512128,29074478
5160923,19416046
3720974,74881744
2772254,96156311
2187703,70329666
2195781,38837051
2515675,10238647
2684532,40164185
3120327,11243439
3751114,49318075
3587570,37778473
2437243,91099548
1408187,89173889
1088651,70540619
1061361,54423451
1253042,2589798
1390790,91673279
1256721,31225586
1663152,2783432
2719191,43980777
3177494,56208801
2436367,44494629
1514191,91108704
1223062,26371765
1239944,49079725
1415198,52122498
1584055,78367615
1712096,09384155
2422288,24943542
3543364,23700094
3959321,66151428
3270416,51260376
2473095,83050537
2364071,71481323
2530277,05930328
2571063,13883972
2188593,36282349
1494088,25653076
1457583,08782959
2203008,97897339
2685538,68455505
2376055,95892334
2077912,64825439
2479725,04499817
3051229,81064415
3270062,98852539
2926265,04620361
2236376,5397644
2074884,99362183
2565637,92523003
2839941,86219788
2469534,39025879
2260887,92153931
2853801,879776
3574402,36483383
3733746,07260132
3061251,04721069
1830532,34057617
1134307,31231689
1407645,837883
1890466,94299316
1935889,99429321
2000828,97845459
2616925,32679749
3300623,2425499
3519347,54003906
2996541,30569458
1922572,45492554
1247002,58822632
1285286,5687294
1338233,1379776
949926,443557739
770296,173370361
1384319,62226868
2177355,55448914
2490169,49293518
2006628,94839478
1002056,16265869
538961,878753662
787403,46736145
757470,298973083
-8706,07495117188
-523295,48526001
3125,28395080566
832139,438430786
1186666,93165588
724954,695373535
-252199,656143188
-530196,575897217
186838,55859375
847789,818534851
641337,93637085
81121,9431915283
12631,5178833008
291356,240310669
576280,660820007
673436,115310669
732350,715820313
1408570,02716064
2525842,11750412
3010837,74877167
2322080,92207336
1275678,06488037
882287,232192993
1011458,92327499
1236830,25565338
1224381,52629089
937440,908233643
1007916,82484436
1523302,31411743
1702123,71277618
1161493,48379517
623656,899612427
732163,279434204
1093786,10518265
1300907,98349762
1093067,56932068
517201,934234619
375960,76725769
872051,628787994
1175795,94289398
785900,515380859
360841,561660767
528835,536331177
902074,308452606
1129060,94984436
1012978,7182312
576413,2993927
541669,898757935
1068852,55553436
1332779,1868515
946155,20085144
609161,290618896
781876,202224731
1034915,62295532
1122938,50513458
767633,182861328
-219271,764755249
-1073756,92909241
-1306784,32065201
-1500245,00761414
-2011237,91696167
-2132376,88398743
-1538331,99726868
-948462,938217163
-629301,942573547
-638383,710403442
-966088,64932251
-794643,168579102
46772,3411102295
448357,676696777
-142969,825134277
-791399,692047119
-843212,589920044
-776220,895915985
-751399,661903381
-854481,842987061
-1157854,07623291
-878995,782073975
149500,314380646
758029,783630371
282435,035949707
-396943,729034424
-526133,48449707
-464411,090824127
-404054,593887329
-535168,554412842
-1025930,59049988
-1158680,17628479
-611807,181442261
-208337,182296753
-530514,151489258
-935419,903884888
-839453,677536011
-613792,65920639
-445773,647621155
-549323,396881104
-1048796,97355652
-1129018,10588074
-530388,577285767
-247687,969535828
-917062,117446899
-1660663,35643005
-1548065,91824341
-1023843,3396759
-627150,686790466
-695836,933044434
-1244417,08462524
-1364551,54501343
-790482,366844177
-454493,255775452
-912369,28704834
-1392680,77334595
-1164486,47677612
-706759,334163666
-446968,556045532
-588171,61378479
-1105182,70657349
-1150560,614151
-451787,438899994
82295,806022644
-288902,277328491
-941279,689239502
-913724,821929932
-488500,050819397
-270132,227630615
-771791,901275635
-1971335,96734619
-2655726,32392883
-2333694,23410416
-1917136,64191437
-2229694,4264679
-2763993,86611938
-2509552,33909607
-1725522,64306259
-1094599,77830505
-950923,402542114
-1082550,78268433
-540292,455123901
774725,692386627
1742220,17366791
1530190,33544922
698469,655426025
315178,1534729
421713,321773529
601638,691467285
532912,008392334
264574,835144043
458880,444107056
1182955,77349091
1674588,16495514
1440748,10675049
968971,673309326
1002850,18296814
1391442,76206207
1644855,78308105
1398187,60908508
725214,69708252
390278,138946533
628362,059539795
816313,073020935
533811,79524231
290412,174438477
696061,260925293
1374413,88380432
1737603,46948242
1417981,14022827
513078,540008545
-80298,5898895264
37213,0139541626
226446,668304443
-96608,6262359619
-444388,381225586
-73637,0334320068
664692,839233398
1115357,50669098
864362,253860474
9214,91909790039
-512222,104995728
-335561,885437012
-167563,327602386
-585209,584457397
-1059077,24307251
-805215,013031006
-157801,306503296
249710,871196747
34301,0953521729
-694838,896911621
-987270,420043945
-508256,287906647
-94447,917804718
-454790,797653198
-1069089,90847778
-1068717,02636719
-661070,374237061
-351736,326694489
-418270,884140015
-727339,360351563
-504182,943222046
336930,655849457
880587,863933563
465853,748657227
-356106,069976807
-630273,179229736
-423619,155117035
-235724,646652222
-437848,829452515
-918004,07850647
-860502,321029663
-149351,776428223
318179,088142395
-145252,294937134
-1014151,50056458
-1221756,08488464
-780023,746841431
-383317,602081299
-561807,823272705
-1111016,24401855
-1040805,36988831
-203597,566673279
422709,034866333
91804,7401275635
-696068,210754395
-860529,218307495
-389326,903400421
-470,916160583496
-229244,693954468
-853101,653106689
-899089,743011475
-181490,263683319
418170,945388794
164221,584136963
-624342,832366943
-888815,486099243
-370157,984867096
128364,781135559
-135336,111663818
-855103,314682007
-1003109,46841431
-396003,974937439
147281,566741943
-74627,210647583
-805921,546524048
-1007705,2010498
-345316,332778931
256249,440689087
-82806,501373291
-923505,909332275
-1135914,32589722
-569973,379997253
-43974,9385757446
-237874,048858643
-943525,687789917
-1123802,03704834
-369728,304450989
278944,938568115
-161000,691864014
-1106284,01480103
-1359933,37069702
-812071,126281738
-261301,958961487
-395582,18788147
-1126918,02154541
-1410894,49543762
-639172,082580566
86705,424407959
-370456,480285645
-1337394,84643555
-1604126,9708252
-1153578,15965271
-765985,796245575
-1020832,12176514
-1853056,427948
-2250028,19404602
-1435897,78081512
-648637,961196899
-1305159,9098053
-2571371,99411011
-3014548,56617737
-2610603,28172302
-2224010,37615585
-2529266,07473755
-3466249,56999207
-3855062,12379456
-2762016,26448822
-1659053,0747757
-2273078,63553619
-3630827,42126465
-4040077,4753418
-3496636,56468201
-3027171,06782913
-3396486,06135559
-4360521,35675049
-4489804,5945282
-3034029,99474335
-1637722,97439194
-2051254,07924652
-3431688,22640991
-3815465,04269409
-2895736,7885437
-1951327,58746719
-2134357,82060242
-3154736,66111755
-3436038,48930359
-2384217,08017349
-1317305,754673
-1612546,84977722
-2740059,72694397
-2885952,88627625
-1707954,50165939
-633523,814250946
-943952,175765991
-2230372,51296997
-2769853,87571716
-2068780,13859177
-1239869,54359055
-1319522,1864624
-1948221,12185669
-1634027,15422058
-139800,785461426
1129216,15453339
985784,26373291
-92266,9441680908
-634721,742492676
-376105,419509888
-16040,4937820435
-128174,117599487
-515950,176147461
-67884,7989196777
1393136,0177536
2601186,85335541
2471931,4228363
1510719,94528198
1033444,87831116
1199418,94593048
1464594,42531586
1375798,34608459
1021269,09698486
1274795,24804688
2225438,02873993
2871992,07282257
2528018,00639343
1797138,93045044
1716212,09646606
2184339,23091125
2588673,64043427
2444007,76803589
1755552,34152222
1419471,7947998
1797006,45484924
2174225,55464172
1902804,66496277
1406962,88479614
1583808,02476501
2300607,93030548
2868347,84886932
2705178,81307983
1791952,89920044
1110082,85690308
1141955,8692627
1212770,42501831
723448,177932739
232945,998687744
643475,95085144
1608880,13699341
2288171,12723541
2116093,31440735
1147973,5721283
467095,625839233
630297,941841125
908443,417808533
543646,08505249
22767,5746765137
287412,157455444
1051520,46859741
1584827,50010681
1466273,40966797
803728,111663818
543229,184188843
1031467,090065
1453800,49052429
1087242,45529175
474517,046020508
549629,176605225
1022764,02719116
1278265,56203461
974165,830841064
213624,675613403
-12356,7574005127
643472,316619873
1246146,20619965
961370,947219849
313607,891174316
284850,678817749
663513,618057251
912156,02910614
676326,109817505
-21605,9455871582
-199824,421936035
496725,361968994
1092006,52090454
733593,906280518
-26258,323348999
-140148,199386597
238555,213165283
579677,665031433
519664,851165771
34310,7092132568
26815,2342834473
829263,406761169
1453434,40679932
1016546,13963318
129506,439819336
-54198,6958770752
320868,07636261
681842,210426331
658212,574172974
219002,197601318
233528,762023926
1028484,05866241
1666011,77178955
1306903,65290833
526048,271835327
398363,053436279
766141,508972168
1075494,04711151
963746,472732544
380806,180618286
151569,027114868
649089,730857849
1076353,43158722
699700,912231445
63039,7071228027
129919,633880615
656303,12122345
1018423,40244293
810656,428146362
60073,4704589844
-244315,229125977
312114,506057739
860032,383888245
619211,607833862
95539,6141052246
202555,314086914
697017,219612122
1033504,08119965
898919,935409546
314813,577209473
150971,256896973
775687,536949158
1369434,41942596
1158408,2205658
596204,802368164
578937,737747192
952487,880554199
1261978,95407104
1204703,78245544
733458,414916992
624866,393203735
1229411,89168549
1752188,71457672
1462910,9733429
865643,995742798
851878,600891113
1243172,87364197
1576826,12425995
1564009,65493774
1141702,85882568
1005859,13710022
1480329,76699829
1866697,26856995
1558095,91465759
1046493,98974609
1111466,58573914
1525557,97380829
1819335,27359009
1705823,88806152
1162011,03793335
900107,759399414
1238644,70370483
1565039,72778702
1368466,56561279
1037377,58369446
1176391,59980774
1566247,21803284
1850548,29853058
1900385,52314758
1722608,97135925
1787266,56834412
2309191,14328766
2785212,95492172
2692436,79840088
2287916,39431763
2175746,74894714
2318081,1784668
2424753,19316864
2244375,89875793
1725383,32234192
1386419,66621399
1469203,522789
1543072,61046982
1248999,26173401
952690,644943237
1185434,80143738
1689393,06337738
2014661,52626419
1921252,72894287
1433311,08912659
1104422,51853943
1161317,54673767
1205871,42559814
985605,993804932
802562,344711304
1005164,50247192
1354048,09368134
1550965,60496521
1531404,03721619
1378461,87464905
1467013,09811401
1979158,01440811
2575136,4715004
2705404,26396942
2342958,90278625
2021758,02851868
1943720,23674011
1962694,58161926
1870397,43731689
1614618,87149048
1502177,26586151
1608795,80395889
1629055,90985298
1377715,74892426
1096782,54014587
1148030,47438812
1435035,431427
1701403,85517693
1957636,78312683
2391008,43742371
3090513,12172699
3833956,26320648
4342407,19471359
4531427,70158386
4434337,03071594
4128099,32767487
3755467,24584961
3443510,55902672
3161311,24088287
2818642,62593079
2377870,72811127
1907042,53318405
1571943,39666367
1344964,37413025
1237173,12149811
1505439,47022247
2041965,91669846
2423639,30353165
2514725,60890579
2633972,50356293
3131931,84255219
3882206,72179031
4876282,54339194
6532930,14717102
8019223,12625885
7782649,58014679
6384048,87072754
5535649,44400883
5744824,14544106
2530299,7230835
-19648118,0078697
-75821275,6974411
-150689841,918846
-205876450,998843
-230122872,699363
-250398321,709684
-292487118,117035
-361067785,883316
-447920787,864594
-531373884,27536
-583385777,152802
-597848022,182465
-596096223,205322
-602027762,623703
-618781908,996872
-629857621,259346
-622717336,472023
-599502724,72049
-571122837,743835
-546223770,894531
-521427294,956482
-493395309,160522
-472083294,940399
-470205961,595764
-484270965,07312
-494359336,676331
-487767858,957939
-469598768,824097
-451048808,256104
-437949545,187744
-424039858,392944
-401463574,465576
-378097195,107697
-369603978,923462
-374005732,401001
-372733309,667969
-359526727,592896
-343118335,588806
-331063884,259644
-326897504,995117
-323573439,103882
-308099578,159119
-285573352,717529
-273387568,664063
-271620282,032471
-266542528,527344
-256381353,930908
-248014800,55127
-243402368,218994
-243457761,932617
-242055075,569824
-227390407,614502
-205770986,750793
-195455133,964111
-195716282,20874
-190681504,094482
-176724312,625244
-161746337,610474
-150922187,070313
-146288470,387695
-144616379,604736
-136873466,878296
-123517281,069397
-112382492,142334
-99863290,5102539
-81079326,3569336
-61564605,0927734
-45970178,8111572
-32797423,4943848
-20897682,5773926
-11817707
-4435825,09106445
7259432,5949707
28967926,2270508
58678447,9648438
85993077,0837402
104034439,955322
118052077,132629
137974050,074463
170985445,325195
221822441,515625
286855973,621338
352658236,961548
413100669,218018
471518018,904785
518332054,335449
541189968,528076
558243094,965485
604179857,763672
691794549,428711
798442512,787109
876750758,645508
892944058,127869
858567725,4104
806112295,796875
752687638,547363
700748979,711914
640468373,997787
547852147,024658
411012389,574219
247327020,349121
86729030,5473633
-42235083,2575302
-120260823,454834
-148692078,99707
-150410039,693848
-151489661,753662
-163192278,76062
-185306428,356689
-209021829,085938
-219660462,533691
-216730910,709473
-216332356,260483
-231169570,079102
-260029354,15625
-291011337,396484
-310503941,428955
-310975216,021851
-293894687,420654
-267583065,563477
-242204520,373047
-224895418,011841
-217294358,333099
-216157843,745117
-216170471,425781
-213181942,111816
-206199921,901123
-197339414,16156
-190057358,751221
-186820261,407227
-187511567,02832
-189382480,740112
-188494950,779572
-181844230,093384
-169041531,52002
-152432252,293457
-134648092,144104
-121194907,840393
-118947461,827026
-125806157,949463
-134190141,935669
-138862256,662109
-137085129,334946
-128724222,197754
-115956477,436157
-101574637,828979
-86991562,732666
-76906422,7671204
-76908558,8500366
-82861084,088501
-87050942,9257813
-86560826,9102783
-81684121,3917007
-74354769,7764893
-65214203,3364868
-48589799,1203003
-21693413,7841492
927928,073829889
1802933,20214844
-13391715,7605591
-22667394,2489319
-17476251,7414856
-7068903,70214081
-2941539,00578308
-2135978,71459961
9669095,44674683
32846525,2075043
54943570,3802471
66280326,5380402
63689494,5873413
57728478,2407837
63837179,7592926
76932110,5352936
77652914,7676392
63834134,4454956
50867699,7318115
45113739,0822906
43779362,0778809
46267263,0992432
51000909,3084106
61538758,9935303
84397494,2821045
108395916,393616
114653253,306702
105795369,895264
98339414,4765625
97831454,6737366
101348359,559601
107771042,047974
114991112,630981
122997818,559937
136529041,98761
150363154,233215
150813104,818604
138313197,114014
123197184,575439
109741036,227478
99956053,4098511
97617272,6462402
112613691,509521
166549622,033447
271976523,359985
409937142,65033
544498357,216309
654290573,21875
748122035,70166
850165440,158936
973576120,182343
1113827977,00757
1248992479,4624
1340225991,56934
1363206443,96155
1336111551,30383
1298119920,81738
1270481421,22412
1239853047,57031
1179813695,2373
1087063532,92834
976055701,10791
834272995,210693
642527884,021973
452812152,324707
348249847,445435
296698237,727051
178558830,897461
-20748301,1972656
-200836608,417358
-282580559,444092
-243724881,219482
-114506006,893555
17470166,123291
83247220,5456543
107953565,4729
161994671,318359
255392897,181152
323780043,090332
327360437,503662
302438314,125122
284021534,575195
255529058,98999
210030759,469482
180463694,895508
186272629,22113
224700898,107422
312234312,894775
461045187,444336
634413674,58374
778057389,317108
866835125,421875
904545327,687012
906211563,123169
883680269,839355
852650996,905151
837765458,574951
845272568,809937
853359956,295593
844208955,25808
826988548,626038
821158952,23468
827679212,071472
827828970,457672
807546797,189331
776719113,139648
755863447,756348
746235389,062103
729271392,356323
692618881,01825
649685770,424438
626287668,027466
627482561,191498
633463214,134644
626571223,40979
610865124,758301
601678234,72229
595852492,999939
572890774,673096
526629798,361694
475942250,816345
445897437,121979
443745647,06543
452271438,294067
448693993,549805
434392554,777039
429395201,435211
430344852,353638
412612316,07843
371463393,07666
325472984,937744
294005214,662781
286110883,487427
292555998,153442
292444141,391235
281822538,021729
269160694,58078
250073549,519653
219024687,72876
184001325,562561
154273715,280478
132288571,063293
117982099,960938
109452440,33313
100895875,153259
91010708,5780334
85696340,935791
87307270,1158447
96225096,3685303
111723256,059387
125359386,105164
126776677,895386
114687468,876221
92703656,8291016
61782638,2381592
32500620,0236206
21806161,7060547
27525120,8366699
34624455,642334
36251561,2359619
31105461,7347412
18313412,878418
1205123,43408203
-14608866,0168457
-30855525,7321777
-47907425,3059692
-55955624,6760254
-53120921,8813477
-44963242,7724609
-32525101,7734375
-19242188,3349609
-12095971,4458008
-12968583,4311523
-21800225,7133789
-41848573,9577637
-65728460,2359009
-77553062,9765625
-77866434,7861328
-78355096,355957
-82305115,8393555
-88750825,4841309
-98449142,3417969
-109837867,796387
-117942656,841797
-121550560,772217
-124997655,021179
-133627986,962891
-150852735,912598
-171134900,756836
-184129984,492676
-186501208,133118
-181330200,123047
-171162442,480469
-157922500,343262
-149295680,1875
-148597457,490967
-146732064,396973
-140544170,131348
-134142067,36377
-126664851,77124
-117365753,876808
-107345501,034668
-97007567,8945313
-94323211,8579102
-107657771,09082
-125352873,674894
-126659123,248047
-108154050,931152
-88020064,5112305
-83635491,6118164
-92056019,7719574
-97871814,9562988
-94614222,2832031
-92436892,7294922
-99218621,4331055
-108378418,572845
-110355596,972168
-105974939,09668
-109545363,981445
-131425466,32666
-159956467,758789
-172889963,133545
-161830686,879395
-141202451,237793
-129288945,46167
-127858290,291138
-128502870,52417
-133382856,640137
-155777503,831055
-194361817,736084
-229259891,500366
-242260689,888184
-227549873,151367
-199899794,923828
-184140712,835693
-183851547,26178
-183235100,926758
-170630243,736816
-150431485,268066
-136138702,496338
-129732069,584595
-124288829,130615
-121789335,384766
-129534092,940674
-145716719,408691
-160846587,296082
-167585247,745483
-164728979,137939
-164795263,03418
-185227130,650391
-218906068,823425
-238389987,342651
-229066562,063232
-206388866,88501
-195412220,058105
-199551571,896484
-204988871,396729
-211592332,524414
-233491742,070557
-266565730,005615
-291481470,265686
-296371410,661255
-279682205,35498
-257705629,346436
-254393691,988159
-266160153,41272
-266844419,417358
-239610331,091064
-188010511,920654
-130641193,900757
-88854857,5943909
-75838066,6335449
-91776202,5703125
-125795141,010986
-162319675,632568
-188185955,007523
-197329964,998169
-191559920,15332
-177887852,49585
-164281182,911011
-156019999,882202
-154154170,230347
-156318727,687988
-159024241,189941
-159993856,111694
-159333715,004852
-159092745,447754
-161655143,842529
-167974154,713867
-176658483,73938
-184413372,645935
-187607182,93811
-184154184,131958
-174749180,665283
-162813762,636963
-153141309,395233
-149848962,32782
-154568246,512085
-165691922,447876
-179010305,206665
-189448477,18866
-193140662,702942
-188954580,234009
-178845625,724976
-166942942,158081
-157807211,551453
-156917281,405304
-177391532,797852
-229358853,965942
-298208156,076904
-356691245,778687
-388575608,75312
-392727860,978882
-377554411,303223
-356008167,641113
-343104196,075821
-350475191,08429
-377398350,185242
-408194922,626221
-426438280,352295
-430780000,222687
-432228516,849274
-440178705,89502
-453896767,644531
-466525289,784393
-473722576,706177
-475600535,367676
-471851302,020874
-458926339,451904
-437575543,548645
-420110378,556549
-422478124,816284
-449564479,853149
-490645950,701294
-529236705,855103
-554837018,064819
-565034556,171875
-560201569,970947
-540051516,82666
-509408061,576172
-482796345,720886
-475499631,163818
-490982717,707275
-521893154,744873
-558733299,493164
-587434700,747559
-593451520,709717
-578323895,894531
-551909407,427734
-518225723,63208
-487316627,538147
-480249996,421875
-511794413,189453
-575737271,87207
-648997510,360352
-708675537,326721
-736624720,977539
-719784483,907715
-669811265,278809
-619824543,222656
-587979506,262495
-569606874,18335
-560161016,826172
-562320457,436035
-572981177,79541
-580549599,64159
-576758851,655518
-566863254,25
-567120105,280273
-585343748,059814
-606702511,937256
-607021636,883545
-576951310,063965
-527609739,079102
-477639166,094727
-441345119,256287
-426016557,522095
-435382873,157471
-470934238,538574
-522545328,156006
-564238673,704102
-570540088,867508
-535877984,217285
-477271452,574341
-420199468,111572
-383247509,97937
-373217371,089355
-389127300,167305
-427377486,218872
-477374554,068848
-517553930,681641
-527840807,249512
-505638184,429688
-466915833,101074
-432397081,352829
-413759654,933228
-411429640,395996
-421681291,827148
-442870905,48877
-471283988,974091
-495821997,798218
-504792911,164551
-496832635,583496
-482022602,442871
-471340631,914673
-466970353,111328
-463569070,167969
-456595168,488281
-448397097,458984
-443257701,212646
-439076709,394287
-430330927,755371
-416623334,807129
-403888742,081543
-396173288,856445
-388776386,52356
-372403611,202637
-344013478,937012
-312018862,928223
-287154960,38623
-271655558,861206
-261984513,56543
-256960246,119141
-258908354,189941
-266791671,970703
-271934632,084869
-263995468,759766
-241185350,433594
-213916087,570801
-194457946,491699
-185326396,641464
-182241453,171387
-183002456,742188
-189156663,479004
-199614086,81543
-206467582,876404
-200183552,416016
-179112711,008301
-153417498,006348
-135242835,447266
-126885122,72699
-123414900,904297
-122489642,150879
-126928415,810547
-136542694,023926
-145264240,042419
-146483976,034912
-136829206,615723
-121745866,225586
-110328811,70166
-103860789,595642
-98072358,2468262
-91892541,5932617
-89662834,8447266
-89926645,0976563
-87293478,8400879
-83449955,8989258
-77300623,5644531
-66884682,8334961
-56366432,5595703
-47243942,3336792
-37632401,2695313
-28650781,2163086
-23882100,0024414
-20437901,3598633
-14997510,1437988
-12822297,6347656
-12915476,9472656
-8642833,13818359
-1256393,30029297
6306226,42199707
14838978,979248
23578117,3881836
29559374,1108398
35486099,5112305
43115954,5506592
46391568,7878418
47087536,5712891
52609271,1704102
62122078,0639648
72602503,2808228
83608126,5222168
93041097,8447266
97024861,3823242
98810610,2219238
103151195,553162
105303022,48584
104710853,6875
105885792,419434
107312388,916016
107853421,44989
109860147,838379
113079608,936035
116097788,39502
123063002,606934
133873575,307312
137951879,591309
134264487,414063
132439047,154297
134322500,549561
137081407,849152
140236045,557373
141944605,476563
142349235,957031
148251506,533447
159442585,066162
162821663,216797
156339497,836914
152244460,609863
153880134,127197
157150568,048859
160078170,329102
159747282,875
157495141,835449
162320745,296875
174119309,351654
179498377,023438
176974546,936523
179085401,609375
187967092,373779
196438746,816711
200135513,833496
196527653,428223
189155684,918945
189244117,451416
197849057,203461
201461936,221191
197919828,512207
199242599,130371
207252961,093018
214661149,267853
217200398,914063
212476855,044922
204785701,857422
205859189,924561
215443069,082092
217272804,621094
208030789,210449
202808127,133789
206560701,40918
211957185,748474
213589851,726563
208292627,908691
201471764,23877
205834893,498779
218940936,371063
222154609,673584
212246043,749023
206387445,46875
211302600,902344
219205362,140015
223080554,349365
218693102,398926
211122598,265625
213438629,085205
224627779,122009
227524063,016357
219495658,086914
217169210,522461
225674486,48877
235789587,548584
240148916,862305
234959066,834961
225476712,508789
225193736,036865
234392923,978333
236660573,299072
228687193,062012
225320658,308105
230842029,071289
237174506,040283
238531356,410889
231917010,140625
222992822,507813
224968616,157227
236208240,046387
237780057,916016
224693231,727539
213007290,730957
210513262,547363
211050552,206909
208594507,108887
199674227,247559
192030584,970215
199769884,80249
216518234,287323
220629877,222168
206784147,755859
191597058,841797
188100339,449707
192417372,929077
194644081,734863
188498023,17627
181144845,463379
185905693,976563
198142450,514252
200445701,107422
188395022,558105
176177166,510254
175083572,158936
179377030,79071
177453986,443604
167162709,25293
160017458,838379
164891118,553955
174240688,745728
174843469,909668
163071588,897461
151379641,790039
153849929,617432
164346476,469604
164867081,353027
152840919,033203
144020600,155273
146287392,505859
151768794,690369
151352220,701294
142606222,995117
133963381,358398
137720241,5
150259729,641968
154056884,248901
144737896,626221
135329720,301514
133158103,362549
134165449,10199
133402254,572021
129548043,625244
124533662,988281
122906473,19458
125382470,01947
126307074,80957
124001456,391113
120585110,988525
116788352,093628
113498664,008087
112161376,17981
114020902,662109
119101969,628662
125786260,26709
131341328,922668
133153661,374451
130019699,993408
122823093,672241
114245598,991089
107638701,013733
105581727,552429
108786219,140381
115828265,445435
123800298,824463
129561807,058167
131022178,617218
127908384,82373
121728974,42334
115012248,859375
110200653,79361
108696361,769928
110441079,182556
114145329,722595
119518992,417114
124856547,884918
125713486,062067
122356813,349915
118718133,49231
116577625,431732
115787346,676025
115380324,129124
114440638,760681
112617195,542145
113208218,268158
117409200,425079
118641782,084045
115630361,256706
114209388,089737
116360574,508324
119571450,914642
120493876,933289
117330753,779747
110623182,923912
102722841,938843
96537617,2613983
94208253,4048615
96252106,9848938
101449906,088974
107438064,73772
111706527,256577
112576835,192833
109781659,082603
104454251,956375
98581327,2619517
94176297,1614609
92515843,3908081
93727688,4057617
96855007,104187
100326505,980049
102611127,256382
102787267,495289
100817785,179283
97458574,4791908
93878429,1947832
91170645,0090733
89956927,9783096
90223196,17202
91418593,5138855
92742352,919899
93480441,3176155
93254596,3728142
92101650,4632492
90381022,598217
88576879,9083066
87092264,062119
86118397,2763109
85616207,5129156
85393381,4562588
85223166,4237213
84944125,907486
84501334,3518677
83924916,6436234
83272836,6838684
82577464,4627495
81826227,7368736
80982992,3698978
80032321,2344627
79016110,9285288
78037002,1255465
77221904,4063873
76661592,9661484
76356826,2667389
76200405,2247849
76008476,5567245
75590984,1359043
74831759,007822
73742625,6642723
72466123,1827755
71223451,8961661
70228155,9566841
69601168,2804642
69322545,8892517
69239778,4365692
69128835,3621178
68782417,3765583
68089330,3466377
67073591,814703
65879302,7871761
64709714,9449191
63746822,7889442
63084096,0457573
62697735,2879829
62464875,7338333
62218029,1801529
61811656,8311443
61174079,6063747
60326152,962543
59362979,2912841
58409791,0187519
57572009,1631489
56899400,4081345
56376230,7792435
55937514,0407104
55501140,2523346
55000882,6147957
54407271,6772537
53730350,9955111
53006738,2626033
52279448,0301828
51580350,8296623
50922029,8137913
50300227,2289371
49702949,7649117
49119934,6373444
48547294,4759674
47985740,5167713
47434731,1024837
46887136,3302822
46328510,8265848
45742248,50354
45118341,0301418
44461079,4001217
43791092,9285307
43139636,0434971
42536802,5340824
41998532,1040516
41518296,8085308
41067646,3961525
40606059,3549433
40096446,2075605
39520027,2684002
38884354,9787364
38220986,5619888
37573572,0565481
36981084,9567966
36462910,3119202
36011704,016695
35596725,2661037
35176100,7951717
34712973,6025658
34189125,5604692
33610913,4578323
33005603,5051126
32410029,6440544
31856368,5548592
31360634,4386377
30918060,381052
30506575,1666508
30096386,2104454
29661519,5753946
29188807,097127
28681226,8980222
28154970,9379182
27632058,3467155
27131781,2571678
26664296,8917522
26228427,7311506
25813853,3180676
25406194,4497089
24992639,6342115
24565959,3519258
24125755,8714738
23677071,5469651
23227463,2341065
22783992,9674144
22351263,6243162
21930910,385488
21522238,7768021
21123302,9678268
20731761,3309431
20345216,1134396
19961182,8728447
19577087,9347854
19190634,8013396
18800572,1420536
18407533,826139
18014428,8539672
17625966,0137262
17247272,9908853
16882034,3537621
16530891,2583866
16190841,4260349
15856023,265789
15519702,3066368
15176747,023304
14825625,3938293
14469098,8429129
14113288,6315446
13765438,4338665
13431225,5507126
13112660,7208934
12807384,8904762
12509617,5706553
12212364,0718174
11910010,22773
11600310,08482
11285041,6330192
10969145,9967668
10658751,7068896
10358885,7240028
10071741,2945108
9796103,76183271
9528056,5289731
10580707,6025579
13102681,2639709
13765951,7974322
11818491,5593994
9965522,05211639
9477836,99185181
9788622,83718395
9884041,71244526
9147791,43943405
7610631,3414278
8914308,93111372
15011061,1175983
18192579,2015123
14421639,4273109
10160771,3061876
9824278,14930308
11878913,9058857
13170655,0371361
11686959,3688507
8064020,328228
7303655,24365616
11447486,3402739
12940641,6556702
8731690,67326355
5821425,01712036
7939156,57190323
12125336,2983227
14160964,7566757
11825403,6625824
6565501,8846283
4592342,04943848
8509329,5036459
10216107,303093
5989439,71273804
3239158,84988403
6024367,02474976
10878190,4980812
13074762,7624664
10285632,7019958
5344074,418396
5864970,25238037
13140327,6331859
16000786,7164001
9621919,3706665
4377550,75604248
6695512,25805664
12193724,9147091
14543130,0119171
10584769,7676697
4438043,54196167
5322045,10632324
13524145,8283622
16159463,3752747
8591748,79830933
3016560,23400879
6511358,96798706
13371067,9498835
15927244,6122131
10621584,7025757
2440682,47918701
1991403,2571106
10172810,0787406
13827914,6363831
7239329,49163818
1862311,61981201
5448724,53649902
12730995,1415443
15553250,8827209
9921732,05999756
1531981,61877441
1890712,690979
11125019,7129593
15208314,0856323
8118904,73364258
1499516,56640625
4369629,36419678
11965721,3964767
15302128,3630981
9572297,15551758
403712,046875
-258417,2109375
8013500,31177521
11469615,4941406
4165719,48925781
-2440561,31872559
721333,52331543
8873687,37049484
12757641,6245728
7358728,72595215
-2224774,05273438
-4404394,91699219
2027692,50148773
4044602,73455811
-3711206,70849609
-9552277,4642334
-5666848,59228516
2410332,50592041
6154234,10131836
1415277,71520996
-7177620,04492188
-9014918,25817871
-2506311,0854187
-404281,336120605
-8087779,94592285
-13896501,4437256
-10863183,2312622
-4434222,78445435
-1712250,30297852
-5743222,30029297
-12961800,8779297
-14521202,7532959
-8299550,58454895
-5336187,29241943
-10980011,3969727
-16102299,4870605
-14944423,9816895
-11120081,9400177
-9543998,22528076
-12256575,5350342
-17452793,2161865
-18930353,7139893
-14376616,2250671
-11936720,5178833
-15565206,088623
-19312784,3280029
-19634336,026062
-18236934,7922058
-17522010,211853
-18393176,6875
-20196731,3189697
-21628162,3522949
-22019696,2223511
-21852620,3011475
-21892656,7667236
-22644499,7921143
-24154847,380188
-25780335,2958374
-26474959,361908
-25392683,0456543
-22438382,2919922
-18447767,5072632
-14884771,7247925
-13196860,7027588
-14139782,565918
-17396525,5701294
-21672854,7351685
-25228020,128418
-26601451,9839935
-25213828,6031494
-21585749,0621948
-17093102,6526489
-13381276,4259949
-11699710,4001083
-12436936,4718628
-15033821,7262573
-18281882,8320007
-20852792,7761383
-21822686,1553936
-20979320,3259277
-18811586,1522217
-16223438,7528076
-14123869,6468048
-13077412,269165
-13149961,2236938
-13983238,100708
-15028425,4363098
-15810879,8879547
-16104263,802269
-15953083,9038353
-15563086,707695
-15139326,6079102
-14765607,3164597
-14384649,9104843
-13877356,4319153
-13184698,5389595
-12394463,8134308
-11736437,0593262
-11480972,8456955
-11790179,3449783
-12600195,9305382
-13602295,9895554
-14344642,0611267
-14417525,6309662
-13641338,2564697
-12169689,9205551
-10454191,7254391
-9077571,41230774
-8520972,69536591
-8962728,95433807
-10195177,6601944
-11697510,0037422
-12837210,2378464
-13118561,1510544
-12377038,7024918
-10841191,928093
-9038616,74990845
-7586295,90892589
-6951279,12447357
-7277097,1294632
-8341802,49739075
-9658641,23259735
-10673467,7981663
-10977226,0956688
-10450443,4326477
-9288313,60084534
-7904884,44753265
-6761967,11487579
-6194092,74622917
-6296557,2393074
-6913421,26346588
-7720422,79261017
-8361749,52838516
-8583188,22736239
-8311859,39365578
-7658989,78542328
-6854548,0357933
-6147541,58029366
-5714333,006253
-5608155,92729759
-5762110,76656151
-6035305,57936859
-6276845,7449913
-6379989,57242012
-6307971,2373507
-6088043,16989326
-5783881,9960537
-5463078,66484261
-5174386,74702644
-4941228,82592583
-4768554,79465747
-4654220,87453938
-4595958,49877739
-4589875,77099419
-4623011,15906143
-4666917,21154881
-4679188,43974411
-4615404,6116457
-4447624,45258713
-4180811,70173836
-3858082,37447262
-3549960,69741726
-3330039,84016514
-3246172,94227982
-3299295,10285187
-3439597,52528954
-3582885,82055378
-3641483,2336576
-3557683,77642727
-3326333,97582626
-2997310,06983185
-2656724,43313313
-2394256,45057726
-2269498,20717716
-2290412,74613571
-2411944,82169914
-2554694,69895172
-2635745,50979805
-2599349,95227814
-2435830,32689381
-2182216,35515308
-1905538,39939785
-1676257,30038023
-1542522,0308814
-1514788,70118332
-1565603,68637085
-1643194,54813194
-1692450,11511803
-1674767,69633275
-1579616,64647341
-1424607,3310461
-1245542,74726486
-1081458,88790083
-960808,477602959
-893586,042205095
-871216,054693222
-872837,162983418
-874499,853978634
-857407,179483414
-812514,46456711
-740788,773881435
-650240,547291279
-551758,647582054
-455611,170748472
-369546,579790115
-298357,459942102
-244116,363541603
-206307,379119396
-181611,01528883
-163738,023745775
-144014,803565741
-113183,001415849
-64201,5147454739
4895,25370454788
89389,1909937859
178550,297224998
258760,398516178
318179,696971416
351243,078895807
361150,261968136
359184,744698048
360917,711717069
380623,621383071
426012,589217424
495326,253654957
577953,405861139
658354,246646285
721792,695007533
759685,709442854
772557,777064085
769550,733683348
764783,639845133
772043,175907001
799853,489232063
848731,202171326
911511,527242661
976428,75133419
1031629,56864488
1069363,08219117
1088350,91311169
1093640,2680465
1094231,59395349
1099558,08457798
1116199,44562751
1145972,07676756
1185903,47167826
1229855,40019298
1271001,06221497
1304171,05432469
1327280,5996957
1341503,56012917
1350356,65938938
1358205,95864433
1368803,52409357
1384318,98214424
1405052,99227929
1429744,06323504
1456212,26067173
1482059,68815076
1505234,33844769
1524387,47864366
1539045,20491285
1549639,52831337
1557417,19253264
1564209,28457912
1572044,88436148
1582642,79927766
1596894,35646236
1614509,33105969
1633990,14955318
1653009,52566063
1669119,18158096
1680572,00112212
1686964,37179352
1689442,78159586
1690365,2431374
1692511,40773761
1698114,57549042
1708069,09235322
1721610,96413314
1736596,0461061
1946654,20621884
2300581,33012953
2319505,88511735
2065920,3961224
1921633,75149699
1939363,19950265
2018148,19116282
2045602,4264251
1971254,74902391
1816923,96068513
1895456,68577713
2213471,55024903
2207772,73739815
1953223,90380919
1891032,66689932
2033327,7488068
2207828,29891467
2252982,47400713
2113478,21745968
1844618,52010059
1561344,34426355
1372865,7810216
1334845,54228783
1434782,09123468
1609151,53905916
1778502,08248615
1882317,09946704
1899162,8467083
1846532,64623737
1764421,99914265
1692910,55743933
1654777,85175925
1649963,09772968
1662095,64155293
1671660,76133633
1668071,30287266
1654602,53569078
1644531,80465269
1651517,45784187
1679970,54982662
1720785,18333054
1754737,30514145
1761809,6621089
1731681,5903511
1670048,11976051
1597478,83044767
1541124,39985892
1522980,39744234
1550039,69851303
1610805,86939907
1679759,98885775
1727831,25711954
1734321,49579883
1695195,90579796
1624339,27972412
1547466,81471634
1491477,07206267
1473812,50372267
1496160,50276279
1544795,64214754
1596997,12969494
1630532,801296
1632175,71423578
1601935,23645425
1551706,72993755
1499422,37775922
1461499,6525991
1446781,2977922
1454203,16776085
1474650,49357176
1530246,14378023
1601972,99913311
1601003,69030526
1539857,02506667
1491398,74626493
1471504,78888059
1466983,17175198
1459233,35845067
1437672,82589638
1403354,96789932
1679915,42111444
2344015,11882079
2604342,70313239
2213632,38103825
1818473,58381161
1764926,61421388
1913765,61914265
2001689,13055122
1865555,57421541
1512006,63821435
1781679,51984859
3286471,03455406
4274836,30615449
3492031,25716162
2430342,01132083
2344225,60695857
2904310,74069333
3310298,9722805
3022858,88747501
2020050,41198349
2461445,24776649
6159261,80287719
8776004,60740566
6781847,15902328
3961158,99891853
3753439,96918011
5322364,81467438
6527425,43507385
5898083,77062607
3339638,15959167
2688062,72281456
7440486,97660303
11095940,0235901
8029799,27589417
4121183,35887146
4608786,52057648
7824351,09087467
10115842,250061
9086393,66516876
4702298,5584259
2201318,57151031
6344455,30825251
9769550,52161407
6192486,66903687
2429550,39083862
4057166,71349335
8633471,23641539
11647792,096489
10339218,7566528
4927161,11505127
1687636,15835571
6216223,76452827
10114202,1033325
6054469,44589233
1714548,52563477
3453274,15150452
8502007,09788513
11800248,652832
10315148,1132813
4884024,13613892
2583787,81912231
8615338,77645874
13225841,199234
8306836,74099731
2659264,31747437
3931825,89877319
9161971,91939545
12532250,6753693
10548780,1201172
5571753,82070923
6287351,2454834
16010384,6396332
23048533,7854309
18213745,3294678
10084579,9804077
9284312,70709229
14518373,7514267
18273360,1793518
15202023,6078491
8540978,26312256
8895209,92782593
18662049,8515244
25352113,5400085
20012575,489624
11396823,6466675
11500161,484375
18977034,3080673
24148773,4827576
20054929,0372314
10993351,9075928
9618538,39355469
18284791,6485901
24534749,3108215
19351328,6939697
10835145,1715698
11882740,4144897
21270501,5783539
27666206,0275269
22870086,4051514
12358529,7607422
10784850,8261108
20062436,0498657
27078443,6843262
22037375,1827393
12293467,6256104
12681571,9942627
23038129,0682678
30431360,5533447
25112893,9708252
13580566,2386475
12482305,5231934
22988279,3876648
31088788,3729858
26067432,571167
14473877,6776123
13654646,7355957
24929626,7305298
33511159,4619751
28880470,1768799
18809259,6678467
19632224,7977295
31054489,0688171
39686724,2717285
35679041,8395996
24199441,0789795
22052122,782959
32372780,4343262
40466940,5818481
34962948,9046631
23650008,4660645
21980145,5460205
29635067,1897278
35068956,0813599
30114262,407959
19890847,3581543
19906544,5228271
32204514,6624451
41042545,4888916
34665855,2199707
21452120,9946289
17330651,7006836
22741133,3163452
27174825,2143555
22747768,4694824
13707856,4040527
14434913,4643555
26801828,5782471
35377409,6337891
28401896,1582031
14218374,1342773
9017263,40991211
13339926,6461792
16495776,1993408
10474967,2773438
371839,470947266
1326649,47827148
14077162,553833
22595438,9897461
15288239,0102539
688956,642089844
-3679265,96435547
2806971,95825195
7650027,91040039
1557302,60766602
-9869245,19506836
-10484176,9799805
562677,210388184
8042604,91503906
1019491,70043945
-12327362,1398926
-14257379,5446777
-4578046,31506348
2412596,03149414
-3699858,38110352
-16673133,3647461
-19483972,6860352
-10723174,1407471
-4318712,94006348
-10501829,4169922
-22223100,0959473
-22570670,0227051
-11226678,2806396
-3324829,93334961
-9372627,95019531
-22347453,0773926
-26082260,9494629
-19163982,2253418
-13629810,6950684
-18416496,2724609
-27514039,4348145
-25265678,6154785
-10332515,3254395
1650796,87249756
-2956376,42749023
-18131288,9926758
-25124130,8388672
-19969165,7996826
-14316894,8933716
-18023934,0710449
-26093239,7207031
-23482419,8110352
-9378323,84350586
553542,036376953
-5808735,671875
-20626622,2050781
-25506941,1430664
-18080023,116272
-11119158,8258667
-14990018,8891602
-25791764,4733887
-28956999,4003906
-20959022,0861206
-14633854,4525146
-20371062,2680664
-30494477,0219727
-30583626,583252
-21035458,2786255
-13749682,5999146
-17413509,8942871
-28453058,6308594
-33175176,9694824
-26404970,3062744
-20183611,7775879
-25100259,420166
-33535759,0432129
-32947584,1008301
-24475080,831665
-18306218,9165649
-21501529,0762939
-32094727,2875977
-39074879,4312744
-35942055,5961914
-32835127,362793
-38092578,480835
-43103455,3913574
-40143269,5606689
-32991024,7822876
-28676170,3043823
-30808541,7089844
-37893251,0090332
-41360683,140625
-34521300,7436523
-27960810,9657288
-31822930,7061768
-38002390,5893555
-38639754,8677979
-35841100,0819092
-33901891,9711914
-34981987,8056641
-38364169,3537598
-38643248,9747314
-31561007,276001
-25360347,3405762
-27873593,2745361
-33306566,5947266
-35463242,2469482
-34967439,5383911
-34198119,5147858
-34480996,8830566
-35576429,4576416
-34700737,6228027
-29537485,5297241
-25020705,9772186
-26264393,1392212
-29943067,5963135
-31917200,5048828
-32134991,7815552
-31745588,5797729
-31489870,4105835
-31376363,098877
-29709316,2150269
-24883906,3471985
-20840223,7156143
-21853373,3396606
-25062158,3873291
-26696193,1956787
-26621953,9989319
-25960792,1329575
-25610739,638916
-25778725,7243652
-24907985,8145752
-21240228,5808716
-18016937,1035213
-18916060,553772
-21193609,7247314
-21534237,3373413
-20271590,4938965
-18963106,3954349
-18775380,0967712
-19891056,6609497
-20339266,0046997
-17762845,0983429
-15114756,6951828
-16001709,0305786
-17569081,2087402
-16682433,3126221
-14220029,720932
-12288590,262125
-12332652,5067444
-14435954,1428833
-16497255,4171448
-15843914,624176
-14297246,5094118
-14760211,8625031
-15128012,5081787
-13184179,982132
-10107969,1303024
-7973574,32626677
-8069024,39112854
-10318482,3532562
-12837635,5469513
-13156862,2671204
-12252393,1035471
-12396446,4225159
-12245228,0266113
-10280937,1846008
-7547793,47144318
-5693922,27864838
-5681363,30375671
-7380845,72955322
-9851348,70428467
-11934391,0184555
-12807207,4305573
-12267761,2195053
-10695306,9255524
-8776520,85177612
-7163319,23110199
-6220970,99731636
-5953745,56691742
-6101363,2796936
-6326458,7169342
-6388800,74679565
-6228588,56429863
-5938498,29463959
-5661332,54231262
-5480671,57539368
-5365214,32740021
-5191600,80319405
-4826264,34468842
-4216784,05461121
-3440780,66065979
-2684617,06929779
-2161289,49915123
-2007975,66130829
-2213904,61562347
-2614497,47318268
-2956070,0711937
-3002321,1974411
-2634812,76341248
-1902949,16963196
-1002262,87206268
-191831,443134308
312270,540433884
421712,651561737
204453,078582764
-151721,868988037
-421608,1561203
-433909,9831779
-133415,359653473
408903,855201721
1108016,90197754
2696804,14295578
4658032,06209278
4750717,62963104
3466366,73756409
2716385,1075592
2806623,86566734
3272967,18863583
3562948,20070839
4953968,3561306
14475633,6734409
36076162,4709816
57067811,3502598
59453106,8639328
44392394,6430006
31200229,4499896
30331914,4879284
35008684,2729111
41914704,067688
60327918,0032349
91974225,8899765
122909660,751189
139815434,187691
138137489,420654
122261022,883606
108153257,896835
108490541,990845
111536410,927338
96163428,065979
62621362,7689819
28752051,6062317
4434861,6699295
-11503208,2567749
-20739512,3638916
-15770660,2392578
12195499,7617798
50876438,3531826
74529232,7059326
67298985,9641113
31348885,6790771
-17346172,40625
-59100701,1073761
-80082595,9972534
-77179875,3902588
-57137021,6242676
-31620452,3306885
-11249163,8093872
-1433846,42272949
-1492691,87084961
-6751328,03564453
-10437254,6234131
-7406641,50024414
-2701573,26818848
-5149321,08374023
-13411674,1296387
-22211574,8972168
-29242859,5263062
-32686490,8800049
-30881844,6572266
-23397744,8291016
-10873781,1064453
3821923,19342041
12753872,4813843
9591374,04260254
-3054490,07592773
-18756327,0361328
-32074594,7664795
-38754039,4524231
-36666284,5703125
-26646347,9372559
-12401343,9185791
760464,315246582
7952351,55383301
6631922,43701172
-2412750,20446777
-15436764,0112305
-27297386,2296143
-33521747,70047
-32016853,5112305
-23744392,9615479
-11940371,7590332
760576,211120605
9779376,64377213
9205205,71124268
967212,549682617
-8551733,22570801
-15646785,1890259
-18827808,1308746
-18266024,6190491
-15200995,3712769
-6311228,69689941
11811827,8800659
26785056,8484955
24755350,1245575
12746091,735199
5167706,26965332
5963364,81774902
9588539,06556702
8779168,763134
4598775,77128601
7785369,93319702
23037193,3253174
38644158,0372467
38666804,4627914
26284212,7520294
24005953,8526764
41390946,663269
58247837,2216568
52499556,872612
35303140,2389374
32390236,85289
45361430,8300781
57761851,4328518
56520246,2168121
44802614,4171448
42212084,2925262
57183923,78405
70622885,019104
61863661,731842
38078199,8136597
22061073,5657349
19590412,7715454
19917724,6010132
13807268,5994263
6522581,70080566
13476681,5993042
34379940,6244812
50792685,5351563
46666317,4334717
25834966,4993896
8288584,30316162
3614220,40100098
3953850,09820557
-1210538,82434082
-7537452,02746582
242387,579101563
20642673,6089172
35612298,4961548
31653102,40625
11165139,8300781
-8529563,46704102
-14346615,0249634
-12876599,9227295
-16339345,5166016
-21079588,8410645
-15834405,5872803
-2424281,73419189
7335628,99560547
5411202,76086426
-7783749,54394531
-24775175,4875488
-36539640,4692993
-41089091,8394775
-42052373,6057129
-40640431,5708008
-37563357,6169434
-34985326,3587646
-33654877,4338989
-32383641,7005615
-29362162,9013672
-23937335,8322754
-17541403,3497314
-13181689,838562
-13805890,7127686
-14951566,8977051
-717178,248046875
35033575,6484375
71996376,0687866
85919030,102417
79006409,3518066
79214541,1943359
102797309,766724
128790880,675014
131462193,600708
119756392,199585
121708928,328979
158287456,060974
253581103,578903
424090470,583557
642051480,245605
850991747,802368
1016480265,10632
1136222466,68506
1220473643,76495
1268183977,0448
1253453058,01697
1160601337,04901
1000570550,27985
778370185,205017
502770867,42305
222564163,073669
5745577,17126465
-120688168,25708
-186353212,971497
-230374413,763145
-256056357,634521
-250368999,490967
-228325559,494751
-215751627,57724
-209646142,97998
-188964307,002686
-152388193,02124
-125274573,514648
-128774024,470535
-154782618,211487
-178303619,255127
-186545024,542603
-185840821,456177
-187859172,879974
-186241759,045044
-162903003,180664
-126728911,062256
-109431572,169006
-130978468,88147
-184971145,005737
-240562161,405762
-267425040,5896
-265520679,312149
-250926298,033691
-227557189,350586
-196304618,122314
-169227401,961182
-160128766,148151
-172265954,317505
-197245344,303223
-221387375,250732
-233813415,415527
-231520478,017273
-219432314,415527
-206330580,05835
-199434724,749512
-200618753,992065
-206011503,479767
-208811630,537354
-203541252,039063
-189388161,251465
-170917018,638916
-155858752,391968
-151169512,382813
-159373301,012695
-177012468,218018
-195971061,915405
-207048388,15036
-204108031,42627
-186885799,91333
-161187740,528076
-136415811,78418
-121555495,119171
-121409364,351563
-126673165,927734
-115116646,077637
-76443674,5203857
-19893004,2031174
57176057,8981934
209057097,565552
467165249,090698
744768674,915771
943443655,586365
1062180904,41736
1148821020,67767
1233403226,50064
1311050379,88596
1357083492,26721
1350078528,08105
1287302831,84436
1187017751,72632
1079876916,62109
995684435,884216
952153463,746948
950022009,594971
975443366,9953
1007494346,1702
1027013475,53613
1023140944,81372
995491946,625732
951989975,659058
904086266,005737
861780284,121033
830433377,720703
810208784,67749
797696943,51416
788460475,660828
779133792,002686
768248373,650879
755766477,967773
741964666,547119
726522166,704834
708399290,169617
686539218,886108
660909656,061768
633187428,913696
606572815,82782
584688572,125153
570021482,901611
562644099,721436
559870658,555176
557093352,908081
549507120,661255
534015352,07373
510507319,858154
481955692,58374
453281457,910522
429451527,85878
413586558,546692
405835051,600586
403434957,856567
401888927,554932
396737665,144928
385207307,860168
367103084,878784
344663089,787598
321515876,848022
301222370,973572
285998026,608093
276079183,293579
269895988,227356
264882741,883362
258532280,357483
249261823,219444
236795874,795563
222007004,356323
206377288,204651
191362010,304291
177919427,032181
166346087,836151
156398372,384827
147563865,649597
139316548,182526
131245584,186005
123046348,218735
114446680,630142
105168325,86496
94984760,6600342
83859604,249054
72081130,6657562
60288679,3217831
49329617,5813904
39970917,0802917
32573997,9526978
26880400,4770508
22025180,6615906
16804113,710865
10108889,0323334
1362408,855896
-9226695,5843811
-20705910,9035187
-31714580,690464
-40989719,1251144
-47845211,8267975
-52434857,9551392
-55694543,2974243
-58986350,3895264
-63585046,0962372
-70207363,4159698
-78763635,237793
-88420031,1594543
-97936548,244751
-106141114,695602
-112354375,215309
-116608162,573074
-119588212,93718
-122340653,723183
-125868345,867479
-130775228,382111
-137086045,847092
-144292170,959198
-151585158,286179
-158173583,820236
-163558778,098364
-167674138,711231
-170854320,413277
-173667415,836723
-176689075,527081
-180307564,236115
-184624063,126907
-189467580,803329
-194498969,844894
-199351001,508728
-203748883,218681
-207574437,920437
-210865854,866917
-213770055,687218
-216476976,497909
-219162470,541298
-221953969,204826
-224918769,196877
-228066027,567245
-231353098,172546
-234692581,71022
-237963140,958496
-241029676,624809
-243774808,94788
-246135750,27309
-248133402,940777
-249878813,636917
-251548239,968307
-253330239,749649
-255361158,81105
-257672944,880493
-260175135,690155
-262681105,64743
-264971581,776367
-266873074,220055
-268321831,698822
-269388525,089787
-270253545,745152
-271141788,966232
-272241445,762665
-273637364,240387
-275283623,639084
-277024597,791794
-278655211,005653
-279996656,25206
-280959016,847511
-281568474,358013
-281951159,025387
-282282247,508415
-282721179,950394
-283357468,328056
-284185764,894684
-285116589,745728
-286015556,86525
-286754304,79464
-287253860,016846
-287506019,215637
-287567904,128174
-287535003,594444
-287504925,821533
-287545616,494446
-287678153,679749
-287877537,168388
-288088105,187378
-288245846,023567
-288299082,29953
-288221369,911758
-288014424,245041
-287702623,811844
-287322820,276718
-286913429,247597
-286505606,083755
-286117692,824669
-285752914,873817
-285399866,983925
-285035451,509224
-284630096,687325
-284154840,892349
-283589149,788017
-282927502,819855
-282182436,63942
-281382329,791214
-280563781,151817
-279760470,506836
-278992045,35717
-278257043,253181
-277532759,229149
-276782585,838104
-275968558,190132
-275064742,022606
-274066598,397064
-272992818,834679
-271878872,379051
-270764591,145935
-269680342,473213
-268636829,222321
-267622144,750877
-266606955,157303
-265555669,210495
-264439338,694778
-263245578,817024
-261982110,659943
-260673026,857834
-259349567,510162
-258039053,131104
-256756019,726021
-255498497,451607
-254250294,945656
-252987943,894096
-251689442,773445
-250341599,851768
-248943613,137817
-247506104,384697
-246046488,016487
-244582696,371925
-243127563,177116
-241685611,250275
-240252922,072273
-238819642,355171
-237373906,615479
-235905728,584908
-234409705,102242
-232885973,381577
-231339494,70874
-229778188,465332
-228210617,285004
-226643859,697227
-225082007,378212
-223525501,34037
-221971340,081329
-220414059,87709
-218847276,681259
-217265470,593735
-215665602,426208
-214048126,307686
-212417055,978043
-210778973,011116
-209141187,201927
-207509568,332977
-205886738,908447
-204271258,222198
-202658130,509438
-201040522,739784
-199412140,119263
-197769448,570396
-196112962,715538
-194447136,712982
-192778891,932503
-191115305,973068
-189461287,247559
-187818055,542152
-186182945,040565
-184550559,795113
-182914827,060265
-181271190,434761
-179618167,769215
-177957762,416897
-176294650,483452
-174634503,524357
-172982086,651241
-171339805,049374
-169707163,557343
-168081248,17115
-166457975,060772
-164833612,160645
-163206034,09552
-161575318,469044
-159943557,517227
-158314036,986908
-156690125,886066
-155074271,667839
-153467407,691139
-151868903,694126
-150276998,485275
-148689513,146923
-147104589,821495
-145521236,162109
-143939550,028793
-142360611,287632
-140786120,331161
-139217914,701424
-137657502,782486
-136105727,113255
-134562624,686314
-133027501,022621
-131499187,594395
-129976413,534565
-128458197,009552
-126944154,465862
-125434642,09914
-123930684,306561
-122433702,031101
-120945114,957581
-119465935,785412
-117996484,698586
-116536319,96841
-115084413,3783
-113639517,86039
-112200607,655121
-110767243,52652
-109339738,923866
-107919070,735725
-106506566,886131
-105103480,604927
-103710599,558201
-102328023,358536
-100955181,14455
-99591075,0898399
-98234657,4075851
-96885205,6011429
-95542567,4182892
-94207198,6483154
-92879992,8789635
-91561974,216568
-90253966,5018997
-88956352,6261196
-87668998,2146454
-86391352,0619011
-85122674,7815819
-83862308,2962132
-82609893,3740387
-81365468,9464283
-80129432,9257717
-78902391,869915
-77684959,8575993
-76477576,129612
-75280396,5056114
-74093283,3657074
-72915885,1421757
-71747770,1499443
-70588568,1436272
-69438077,2832088
-68296310,1872654
-67163473,6584454
-66039895,6705418
-64925925,5179825
-63821836,7455864
-62727758,2987614
-61643649,6083965
-60569323,0181446
-59504504,9336452
-58448917,7444935
-57402359,7535992
-56364761,137249
-55336200,4199677
-54316876,7977905
-53307046,2955132
-52306940,6790504
-51316693,7773552
-50336298,190834
-49365606,2751961
-48404375,3284664
-47452342,5061207
-46509305,0297375
-45575179,3287163
-44650019,7474499
-43733991,1115675
-42827305,0821295
-41930142,3682213
-41042587,2686214
-40164596,1924562
-39296009,6168108
-38436601,8162985
-37586150,0342398
-36744498,9219894
-35911598,8226404
-35087506,4730654
-34272350,0898876
-33466272,7402401
-32669374,3275261
-31881671,5831289
-31103087,9977217
-30333474,7009096
-29572652,926384
-28820462,3635149
-28076799,1643934
-27341632,2773285
-26614994,9211779
-25896956,3488398
-25187584,8118467
-24486914,2497044
-23794924,6665344
-23111540,7723122
-22436647,3328061
-21770114,7918358
-21111826,4235096
-20461698,8664346
-19819690,7794909
-19185798,3700137
-18560040,3830047
-17942437,7849994
-17332994,2986584
-16731683,1311445
-16138443,1182985
-15553184,7411137
-14975803,7830696
-14406198,4399524
-13844284,9153504
-13290007,100647
-12743337,6982818
-12204270,6422424
-11672807,2173328
-11148940,1501973
-10632640,5566664
-10123851,7477062
-9622491,75845909
-9128463,70680046
-8641670,58726168
-8162029,69490314
-7689482,03127098
-7223993,74054074
-6765549,29045153
-6314138,84419298
-5869744,14386737
-5432327,61067545
-5001828,15200853
-4578164,80653024
-4161246,69832122
-3750985,7227335
-3347307,63313115
-2950157,94965672
-2559501,02765095
-2175312,99668282
-1797571,27953216
-1426244,35971904
-1061285,13612472
-702629,783114351
-350202,079622587
-3921,38257852197
336288,616738856
670493,228007436
998744,137068599
1321081,29751694
1637538,33276701
1948149,42783064
2252955,42386961
2552007,30319679
2845366,24245346
3133100,5478878
3415280,69441783
3691974,13282979
3963241,42752182
1486428,90162516
-7351921,21844864
-15930629,3658619
-14388673,2896888
-6668547,91197276
-4397497,15309477
-12833837,7107878
-23404842,9276619
-22952592,1270504
-13803196,2968197
-19212516,1507378
-60179067,4134761
-126204153,376045
-189842248,631821
-230460563,032486
-238065015,507669
-226688946,356186
-227747034,139709
-262967595,785278
-332162017,111633
-409683161,429016
-462278416,089447
-478254710,302094
-472437027,859207
-460017505,125641
-436367067,410248
-404787965,796707
-380198537,521332
-361820456,253723
-350355551,205811
-352308602,33313
-366091093,843933
-398554108,712311
-470083576,874878
-584428237,209839
-711728809,425293
-822778263,236206
-917198668,769897
-1003522449,56763
-1072692945,74707
-1096675924,51611
-1055604414,92358
-972264271,310303
-904325687,431152
-887348068,478027
-904744486,685059
-919123560,053955
-909173315,364868
-874744774,540527
-814351723,894043
-715027504,253418
-576600197,416016
-427987403,971558
-310058248,044678
-245963998,399902
-230298098,830566
-241959599,945313
-258770571,947266
-266265312,003174
-259754947,119141
-243087957,78418
-226308835,794922
-216613974,380127
-211892388,723877
-202800675,365723
-179475800,571289
-139615914,068359
-91870610,6728516
-51910359,6657715
-34303383,0195313
-45445666,0800781
-80175285,4819336
-122505597,5
-151758075,96167
-151852231,038574
-118176696,654297
-61149500,3950195
-3009581,52441406
34854574,4981689
42067391,0058594
20518304,703125
-17945359,5703125
-55921441,3786621
-77033794,0563965
-71999124,3261719
-42178010,1040039
1017007,90625
41610150,4281006
66011512,4922791
68084026,1442871
50893824,0561523
24871206,5288086
2900972,4041748
-5906140,81298828
682842,309814453
18988085,6638184
41349270,7803955
59107346,8122559
67052207,8097916
66034360,9398804
61133880,0358887
57289164,307251
56558035,2284546
58396234,5152893
61336378,3726654
64466721,9117126
67787868,7712402
71668285,1788025
76381296,4898376
82284844,6407776
89958346,4446869
99413040,9254112
109336372,13044
117215423,077026
120077006,3591
116251817,438538
107206570,788269
97206637,3246975
91345495,4439087
93331833,1622314
103278745,68927
117438283,24469
130642610,273621
138987148,329758
141369173,301758
138849952,466675
132773938,296814
124848474,394684
118517227,673523
118336287,056641
126252112,478394
138918879,791443
150094923,194489
155141172,762758
153560896,032898
147771558,180786
140049876,196716
132142614,789001
126250463,737814
125222126,718597
131035287,049988
141944305,47113
153124235,133972
160304281,877563
162077608,567192
159718979,948517
155641207,502319
152412197,129578
152107886,511429
155691140,664066
162171935,675171
168335449,329102
170894803,233185
169166245,798981
165485972,886871
162702932,569611
161609011,616089
161691203,899933
162854258,895142
165551086,709152
169593434,431377
173186556,446075
174270460,790039
172611619,696533
169976872,050964
168402324,543259
168410880,46431
169055223,297516
169413815,445007
169711698,133179
170452399,469681
171068511,823837
170905935,943604
170638386,833984
171662001,684021
174411339,011017
177458885,20734
178710829,528931
177343763,020813
174408638,628967
171592350,029053
169475624,932617
167661058,298065
166056988,694397
165285330,378906
165911006,40448
167449159,294664
168627983,122589
168702173,986603
168138876,087769
167771737,28241
167791007,574829
168060583,453888
168692247,159302
169943142,613281
171791144,215698
173613035,550014
174438589,909149
173649594,425842
171539992,2854
169068008,550964
167075364,218819
166064138,813873
166240225,695679
167479522,75415
169436794,459351
171331911,169594
171893866,022659
170386350,509827
167602152,828888
164980854,547302
162976776,758743
161153433,617767
159250247,550018
157476983,378845
156123765,522461
155084733,205841
153958187,792145
152702716,176163
151778804,877716
151380790,320602
150954208,368073
149945980,85936
148579515,936401
147500084,125565
146974058,411057
146689830,944157
146236148,459198
145453888,296722
144460227,733124
143428416,489214
142345134,680794
141093169,560867
139543174,696594
137760919,805878
136078111,602119
134766371,597179
134184620,957016
134565961,137024
134817558,253326
133627258,428937
131542830,290649
129577917,170181
127808163,783783
126237311,849442
124856056,483292
122991632,389107
120098272,761333
116854976,327065
114685261,678101
114890294,907883
117393443,288784
119974624,60041
120433348,572342
119010267,591125
117498552,018517
116657593,609474
115751822,496251
113995086,687504
111913862,589138
110991837,092865
111327941,139933
111507767,232067
110594706,179497
108956625,434448
107814810,57914
107730066,811707
107923739,223579
107297297,548304
105872434,641615
104618490,72157
103689715,629961
102503187,49334
100721777,898396
98674716,2728271
97402157,3748093
97274927,3083229
97348255,0801125
96490500,8655281
94862711,4553127
93624310,2520294
92926008,5682163
92118007,8303452
91162930,3808784
90610303,9747391
90983168,205555
92039590,6846581
92733125,8345032
92196234,8023148
90655751,606308
88975297,5913925
87443602,9479713
85914280,4459686
84579763,021204
83866140,5391712
83883446,7033863
84263118,3417773
84441123,2025719
83921118,6296005
82754159,9663925
81561656,0964508
80582477,2869644
79503029,3930359
78263761,6825724
77085361,2242966
75936008,0834084
74661872,8546829
73246345,5553269
71878492,6026344
71080657,0381699
71130581,9920044
71387079,2046661
70907641,2070694
69263783,5159893
66757214,9568405
64279388,3929214
62499904,8621063
61372781,0038872
60590925,287468
60223530,3705215
60462026,2115097
60857514,6400604
60728913,9904861
59866202,0994644
58493150,8874531
57072925,7218819
55867563,1980667
54696133,6388168
53357811,1148839
52198957,3691139
51738217,5844574
51695356,7330704
51373245,4744873
50387983,9623222
48909008,8509264
47720388,5362492
47189462,669857
46707938,5781631
45593088,3811579
44123764,859148
43208786,6782341
42949861,6056824
42734974,1416016
42154505,9452553
41345248,7120209
40931576,8193226
41032788,9929733
40992545,023325
40224059,4187957
38873694,5025959
37660539,665451
36881208,3648453
36312431,0339355
35602068,5131483
34566111,7260828
33655537,0214367
33214258,5141468
32809752,6736755
31869695,0782166
30574555,8559418
29683856,0827103
29331985,9932938
29130745,7953815
28776281,3240376
28264529,1747398
28185056,318161
28748783,2059975
29131793,558527
28459480,6422501
26942766,7995758
25625665,0017548
24941817,8867874
24605169,3122729
24393856,0006409
24376969,5135117
24876086,9463425
25781236,9561234
26309415,4371548
25903758,035202
24838978,4785385
23779493,5351791
23008262,5930176
22402465,946784
21804949,759758
21209747,1122131
20782890,8481064
20568570,2910271
20345153,7020664
19951620,7045975
19564610,1558838
19400693,2365036
19328068,9542274
19044913,1920681
18306503,7163544
17188081,7011642
16074295,4773941
15058681,6293488
14074848,8142872
13303895,7651825
13023681,4737244
13350492,0273819
13912512,1968994
14085334,4373628
13477298,3838997
12142265,2929077
10629370,6496353
9431868,86018753
8582120,60041451
7899910,58501053
7502467,63545227
7735716,62693024
8319658,18024826
8534665,26501179
7913619,37924194
6600586,65007019
5536520,42416382
5324441,22890854
5471662,74601781
5196186,52007675
4504038,79390717
4121684,71253967
4187359,95684814
4236688,44717169
3949890,97696686
3392195,5061264
3178513,06420135
3635865,33842468
4214660,68300319
4170296,49323654
3453633,19358826
2680491,12334442
2167997,22544098
1897046,58097982
1997844,11174393
2599628,13337708
3663446,25588989
4844443,77799225
5536741,33812237
5306802,3359108
4333889,3285141
3264758,52899933
2482343,1037941
1968607,42164803
1688099,78326416
1640313,24869537
1790673,18818665
1995858,03766251
1972833,59216833
1497681,31168365
844358,761680603
616459,724472046
809247,583118439
857731,293289244
348719,780963898
-669221,617591858
-1623918,66065216
-2097158,6048584
-2269705,71696949
-2404623,87701797
-2395275,46940613
-2004049,9715271
-1443787,57767487
-1190666,72037125
-1536376,302845
-2412668,68334198
-3261363,559021
-3667452,78135681
-3847256,19385242
-4179356,87010193
-4541953,18204498
-4438186,69972229
-3924768,61466599
-3546734,93046284
-3676616,73920059
-4306990,8339386
-4936834,68447113
-5151711,26007462
-5162934,91036797
-5445562,17397308
-5998161,69153595
-6215868,05493164
-5912865,08938217
-5573642,6931057
-5605427,34012222
-5903654,88582611
-5858390,39633179
-5235625,8060112
-4575603,33827591
-4461294,5127182
-4915895,31666565
-5421098,64888
-5626158,82022476
-5638831,67232704
-5638808,96930695
-5628985,83607483
-5414496,60063171
-4989808,67608261
-4713870,88217545
-4928604,72505951
-5518289,52903748
-5929013,88788605
-5921974,102108
-5805763,76578689
-5958106,32728958
-6447789,66158295
-6869918,88512421
-6921315,35784149
-6858299,19453096
-7076753,60628128
-7541386,20526886
-7699319,55821991
-7313488,08240509
-6878674,01471543
-6999072,8472023
-7696449,12961578
-8266168,79019928
-8253537,35577011
-8008718,74117994
-8094266,22714996
-8584450,40995026
-8820289,92816925
-8405725,17723846
-7869240,49461675
-7916884,0879097
-8532676,2049942
-8884149,18318939
-8542687,04068756
-8058066,5850482
-8091081,80196762
-8652309,09289551
-9010639,22233582
-8705304,21707916
-8251065,29586744
-8467675,17180252
-9345439,27703094
-9836661,97042847
-9392049,47657776
-8677248,92296231
-8617364,99602509
-9470848,51586914
-10305240,6918335
-10078938,4334869
-9288272,07020664
-9139339,59122467
-9586433,27932739
-9540407,09516144
-8700479,14263535
-7851682,65011215
-7733273,74230194
-8449110,35912323
-9236075,64431763
-9123466,46937561
-8476422,18692207
-8435669,93426514
-8882097,45838165
-8818957,59381866
-8074885,76587677
-7339801,26768112
-7226744,98236847
-7815700,96452332
-8454135,80975342
-8226920,75241852
-7507458,1896944
-7581964,8399353
-8381329,62966919
-8792947,39411163
-8498253,21485901
-8047238,29656458
-7971095,37740326
-8381616,22879028
-8757524,56108856
-8235988,75811768
-7239959,87605286
-7225823,20169067
-8136555,82344818
-8716778,22259521
-8549849,55080414
-8104302,59624434
-7934349,81421661
-8247034,46609497
-8578031,08346558
-8052961,77714539
-7015423,92229605
-6900088,63052368
-7664089,42835999
-8064491,29549408
-7712708,7075882
-7147350,3294239
-6991359,40864944
-7381270,70449829
-7696717,09672546
-7065464,84498596
-5999044,89010692
-5985462,15266037
-6879636,04864502
-7325416,11987305
-6940193,85539246
-6311467,39506626
-6055153,97885895
-6369170,93917847
-6654937,63159943
-6025003,64440918
-4985361,46880054
-4960311,91017151
-5851947,05224609
-6318233,85861969
-5944012,88739777
-5428012,511796
-5476548,20648956
-6187509,65346527
-6666061,11100769
-5957838,0524826
-4746786,01988125
-4605691,5451622
-5638006,09489441
-6361190,9677887
-6008409,38171387
-5266827,60241365
-5086085,93613052
-5707202,83770752
-6177038,60366821
-5603412,60777283
-4573128,15190637
-4292102,77319336
-4916998,65652466
-5201097,30348969
-4386598,11681366
-3261877,13261531
-2957021,27674866
-3734989,40866852
-4559673,56508636
-4466416,18532562
-3839703,58563995
-3578223,32957458
-3813129,03503418
-3639459,84614563
-2570732,01290131
-1391768,36716413
-1137807,10807037
-1910453,62472534
-2665139,34259033
-2660078,46279907
-2267115,64772892
-2149568,06424713
-2438210,73927307
-2432827,40840149
-1669148,3447876
-745470,10142231
-549965,830101013
-1218950,35566711
-1827555,3302002
-1672932,99044037
-1164727,93929482
-999098,243225098
-1260855,52557373
-1310712,73104858
-794564,973007202
-176739,438440323
-78529,1063232422
-624919,054916382
-1091809,16531372
-805085,001976013
-210084,390995026
-242048,911254883
-1041197,9052887
-1704602,39955139
-1590759,42802429
-1087818,50564814
-924474,903808594
-1369520,69697571
-1717485,25416565
-1162786,23200989
-270469,161766589
-280573,315460205
-1225945,52929688
-1976217,38417053
-1983136,11781311
-1683267,72265148
-1623737,23680115
-2008001,95936584
-2317086,99902344
-1759912,10689545
-833564,537867546
-870659,084541321
-1786546,49569702
-2337415,82876587
-2097004,21778107
-1653136,69905281
-1624505,88618469
-2169811,07865906
-2817133,97241211
-2630183,50138855
-1790944,5737896
-1708572,2975769
-2442696,58953857
-2847526,58407593
-2588076,78672791
-2121695,89335251
-1916598,30162048
-2162547,27072144
-2753565,8535614
-3381356,48704529
-3755736,44259834
-3767574,03021622
-3521609,48741913
-3213678,12862396
-2962559,25976563
-2823126,00114632
-2749324,12574768
-2628347,66339874
-2431855,36979675
-2173318,52547455
-1915290,21574783
-1788721,57633209
-1862077,1296463
-2094225,72582245
-2382762,6529541
-2611116,72115707
-2666868,47548485
-2491127,90111542
-2123670,38742828
-1661185,78107452
-1256150,58634949
-1062603,27396584
-1139685,31273651
-1448121,82570648
-1853301,38244629
-2165640,59512711
-2255310,01179695
-2112019,46573257
-1796497,97591782
-1416395,94055557
-1117470,82618904
-982883,266091943
-982434,99230957
-1049840,2119751
-1125183,1900444
-1161210,63855171
-1127137,15863323
-1005411,40530872
-758513,363988876
-188929,790088654
550928,222597122
782911,451365471
461120,599969387
198271,415078163
273400,376311302
511469,646934509
667697,220811844
621708,733014584
552917,809010983
1062335,77679062
1995858,73206902
2209531,07966805
1642345,85461473
1311238,61528952
1586635,45554829
2108302,36614943
2388272,31328487
2095343,12244177
1556868,67843127
1579663,76033401
2107223,82558346
2241910,06479776
1925812,92316103
1999649,39546299
2683705,9924221
3388128,75536191
3487775,53877068
2774461,74503136
1899036,52935982
1719392,06016064
2056470,34892297
2055235,93422127
1551718,24843597
1369532,66651917
1941316,33824635
2684504,63842106
2813079,85832596
2175634,28352356
1564970,46658325
1579289,22866249
1866978,9216032
1848778,23806381
1390686,42361069
1123811,46892929
1558666,35036087
2196666,51806164
2211341,60776901
1513066,58483887
945797,883956909
1005107,47384262
1274626,34681892
1239896,45714569
803723,625968933
589052,671699524
1129611,3227005
1940108,68675041
2139733,21675873
1613825,46593475
1168639,45999146
1195534,81362534
1352749,58417702
1299841,62494659
935579,091812134
780032,923027039
1308317,23239899
2007415,23757839
2042591,82224274
1415065,7795105
986987,197723389
1126899,45504761
1420910,53623295
1435335,03871155
1019210,88279724
708126,635635376
1053116,37978363
1651686,06361198
1700111,82941437
1156847,6905365
866310,403991699
1167961,38459015
1598082,86587954
1696701,72984314
1282623,7671814
853703,862548828
1009059,82611847
1472361,60783052
1522936,51660156
1091865,82991028
917724,529067993
1283120,18141937
1739385,3914628
1820210,57770538
1341543,21569824
822324,791275024
852498,164306641
1148181,58771753
1041737,05751801
548346,394943237
432268,626922607
924202,179916382
1492218,11264086
1623221,19308472
1117554,44729614
506816,506744385
467587,065490723
777081,066323996
734145,196609497
277114,152130127
135381,30166626
579803,107002258
1115914,4441278
1258353,86496735
814246,721084595
277210,583740234
304498,997337341
666508,554209471
617808,441169739
68063,1506958008
-185116,383560181
194375,629081726
679993,850636721
730521,825546265
199639,443954468
-258151,454620361
38976,6311721802
690028,717641354
815215,122795105
259133,994720459
-154960,430374146
72689,4457931519
512991,036845922
588554,584869385
117077,398788452
-283244,350570679
28816,2259902954
647311,744577885
711658,724884033
69463,5456695557
-427505,981903076
-190985,623947144
335615,533428669
483091,077911377
48482,24659729
-344278,379180908
-43623,1006317139
592787,491389036
756048,720367432
319776,453887939
36449,5876312256
294711,672195435
670225,799312234
668017,813117981
136024,079193115
-337869,623779297
-130378,988227844
393081,03172788
441213,626251221
-62960,9069976807
-337628,595046997
-22431,0736083984
424901,978373706
504645,516838074
43707,3869476318
-397744,545562744
-178242,119171143
370656,036938727
453901,486297607
-23705,0618896484
-301809,397171021
-42248,7507705688
343187,230949461
438585,154243469
107394,339935303
-131450,870544434
269376,313568115
909499,65849489
980690,249069214
369000,147521973
-117888,07850647
28732,3050842285
441261,49979949
598182,403320313
300317,692230225
27024,168548584
317581,347259521
841029,431817979
886827,925941467
415734,353851318
154296,638061523
417821,253959656
794420,736465693
830644,04826355
352115,838180542
-155985,936462402
-98310,0058288574
283050,054806471
281866,398536682
-207472,153778076
-443427,14100647
-70525,3389892578
438632,94819212
552063,871582031
88885,4949798584
-404347,934906006
-305333,507614136
107519,811103284
125815,037879944
-366915,779907227
-645911,909515381
-318791,378013611
161798,130438656
251935,295372009
-218347,832763672
-646748,557052612
-371208,129127502
237265,291684926
335927,10559082
-197651,014404297
-573400,844894409
-334430,915916443
109592,119688377
235136,801719666
-133135,936630249
-487557,043151855
-253771,074691772
244421,305875868
259723,529716492
-277016,261764526
-594447,409805298
-319222,761734009
98149,1106553376
146010,949790955
-339575,821853638
-781142,188400269
-539179,561073303
45482,2442234382
174300,153106689
-315930,739120483
-679306,65612793
-449404,426383972
-22742,5301032928
96689,090133667
-265475,705062866
-613614,519485474
-356653,811408997
203676,976620734
285942,531188965
-256688,658920288
-639399,063705444
-403165,401382446
16516,2904453278
82122,5164337158
-383373,007720947
-814184,217803955
-566047,571632385
26477,0592896938
165865,564933777
-295146,993148804
-616227,24319458
-364413,465187073
54228,2787959576
145648,048416138
-264793,821517944
-678064,47555542
-499638,095664978
-16583,003200531
10629,2900695801
-574553,767944336
-959827,649261475
-652266,977348328
-141680,66001606
-51536,9325637817
-629464,404083252
-1263337,66322327
-1141172,45643616
-538779,463572264
-361105,085548401
-870582,884292603
-1272391,9180603
-988827,096633911
-441224,654628038
-241095,838775635
-583168,60333252
-856057,969985962
-386205,607597351
443508,692564011
728606,779777527
224583,378692627
-290640,412353516
-205888,050796509
179814,185892582
348373,883483887
50772,2561035156
-292881,060775757
-108540,43914032
335306,815658092
344426,184165955
-191828,225845337
-542310,164855957
-253556,147399902
245477,57047081
384115,223754883
-68349,9197387695
-609217,936431885
-524063,655632019
-1777,46244382858
164019,586677551
-271151,58152771
-599095,129959106
-315283,843734741
192535,785095215
358637,216705322
-45127,3593292236
-494401,803817749
-321897,366020203
182216,253028393
252516,764701843
-236829,409179688
-548302,941574097
-250309,488479614
226512,881845474
346227,156837463
-50262,7225952148
-416809,410430908
-164979,586647034
394836,481949329
530620,877372742
39847,1507415771
-375940,848220825
-165653,686950684
294302,44822216
372898,6979599
-203439,357223511
-867908,226806641
-905066,705253601
-609176,838760853
-775189,9610672
-1488899,01771545
-1812083,87770081
-1252535,66921234
-504132,503724575
-368299,648155212
-1069829,86390686
-1839549,09393311
-1722335,48513031
-969105,30458498
-616051,7734375
-1064525,74382019
-1487480,41221619
-1235448,12489319
-729887,209011555
-544478,214080811
-807340,329879761
-882182,936584473
-141929,088233948
908191,957429409
1281344,34507751
722234,139175415
46245,6674041748
-46372,5916595459
205032,103537083
268462,078300476
-123213,220046997
-502092,304443359
-247320,158454895
317485,399055481
405351,840705872
-160245,815979004
-619187,115859985
-373179,650794983
186935,810230255
378892,346389771
-94347,4787139893
-659734,615783691
-539822,547401428
12943,4578723907
131459,048568726
-394641,624832153
-736786,044204712
-361959,07989502
249738,7594347
455727,199645996
-1638,49081420898
-564438,824035645
-481888,111480713
-323,304041862488
62982,2406768799
-505913,738479614
-909311,720474243
-569169,527580261
48194,2163848877
265411,838218689
-157896,595794678
-631687,757965088
-402286,920097351
266547,787474632
497398,934089661
-23574,8669586182
-526695,006774902
-326656,30052948
201259,562832832
361027,427566528
-92178,8037109375
-521448,066696167
-205542,414283752
500442,324960709
726747,792877197
236850,238830566
-210275,181945801
7213,77305603027
516094,578882217
642452,962249756
126043,409713745
-430401,968444824
-306778,941459656
208556,413142204
307298,647972107
-257117,218490601
-713926,124481201
-398731,071662903
261991,315485001
490123,310157776
-22766,9488067627
-640637,176635742
-568740,496658325
-62416,0861186981
76279,3773651123
-361477,991424561
-647621,142654419
-287486,512542725
266402,771574974
410775,001060486
-98251,3886260986
-691983,488372803
-574071,681358337
927,317078590393
152233,048561096
-407541,472427368
-893981,03163147
-656531,777854919
-109265,817052841
82924,2537460327
-342475,562515259
-820453,567581177
-582919,422454834
115890,710776329
375955,87297821
-117199,256607056
-588622,599685669
-423478,833496094
8793,35864162445
156706,065238953
-208793,255462646
-566730,48097229
-213452,143051147
508982,258319855
670886,479698181
32438,2506561279
-546604,694198608
-400655,384681702
84690,6464033127
308921,375221252
7139,67547607422
-335333,536911011
1007,95282745361
727507,700655937
950997,183181763
433070,871994019
-36644,3608398438
127530,316566467
549580,486763954
682732,085540771
296239,05140686
-130823,491210938
115748,556137085
789575,304666519
1021082,57213593
562317,523483276
171301,652267456
393669,851882935
849819,986394882
993246,015884399
602797,928726196
162215,304855347
306235,689437866
781466,967867851
893083,515731812
440631,032363892
72107,7191314697
339505,101364136
877031,030189514
1066027,15818024
625032,023452759
23316,3186187744
-4565,46748352051
419360,819758415
563862,636756897
143201,575302124
-174680,340316772
159014,711708069
731350,336066246
922568,353744507
468010,729537964
-130150,963470459
-91778,0698623657
420498,911027908
586913,069282532
145654,883407593
-177032,002929688
126645,324333191
634068,11414814
795954,594657898
386984,146957397
-118670,055786133
-1286,78577423096
551389,491719246
726335,397270203
257971,158538818
-136471,748947144
69910,2437133789
512892,509224892
700784,696632385
407055,879470825
44908,1604003906
269391,491485596
847038,604275703
975647,807815552
456119,426086426
34543,4198150635
208022,949821472
594750,364896774
709886,205566406
315412,328552246
-161289,986968994
-22387,8721084595
506466,164295197
625515,196258545
103205,097518921
-336958,915985107
-134520,828735352
339280,870210648
560884,023353577
283073,627441406
-128540,982788086
1750,46843719482
535895,089868546
699627,22833252
216241,469894409
-220366,839874268
-54043,3369750977
357961,221112251
507542,328674316
165152,20501709
-275237,532287598
-108397,276618958
518051,277122498
768694,989547729
342590,605514526
-49448,6517486572
119252,617973328
487075,303666115
581888,51600647
188829,749725342
-278009,581298828
-134713,351547241
411420,411941528
566516,089752197
119114,502288818
-228228,042648315
-2542,17872619629
412560,060788155
544208,544471741
173578,437774658
-287776,631118774
-131114,235801697
432553,511247635
560508,352363586
58481,0207366943
-315689,776306152
-83697,1110458374
352758,804615974
494625,101982117
116539,451293945
-363848,126998901
-262601,688156128
238092,993806839
360901,117607117
-138427,960479736
-550730,22857666
-326211,822029114
157379,620639801
338614,104988098
-43941,7557678223
-544464,93989563
-443742,043121338
72969,1487932205
203634,784812927
-319586,187301636
-752960,819137573
-509458,851707458
3075,20133495331
189604,834320068
-223761,109420776
-761030,010665894
-651029,69606781
-99423,1579322815
52831,0300598145
-457108,950805664
-880835,23399353
-637841,924156189
-137906,404699326
50097,6497344971
-319819,62852478
-808672,174102783
-668693,11542511
-66732,0252523422
162560,087677002
-256322,750457764
-629537,762969971
-448747,424453735
-66227,0075864792
70936,21118927
-256474,669647217
-669777,716964722
-476694,528060913
140187,349557877
348641,319816589
-146004,445175171
-622638,18850708
-488027,903030396
-87231,4714899063
67086,3689575195
-273699,821182251
-699636,180114746
-493335,590606689
152240,95893383
379407,10660553
-149855,401077271
-697564,518951416
-565457,441375732
-79135,9745883942
168996,010871887
-134181,253005981
-601939,220703125
-468856,08833313
125753,084187508
330720,293327332
-156734,709671021
-585002,092666626
-353560,651687622
133972,917149544
303570,844558716
-96812,4902954102
-634249,347000122
-557779,70904541
-18536,3879299164
186337,062332153
-222194,592071533
-582970,91960144
-347686,000228882
126794,757623672
289668,537536621
-101839,240936279
-599206,310791016
-507407,28477478
9607,62921905518
226661,458641052
-191844,303024292
-636773,542938232
-456925,799766541
40075,9983119965
248694,648605347
-119987,113540649
-601137,277053833
-434866,362358093
192513,645547867
452493,274848938
-28531,5605621338
-588932,008422852
-463333,492774963
75580,3459606171
330550,421676636
-51453,4695129395
-585548,761764526
-472569,72177887
102084,996385574
305185,894012451
-176717,366882324
-639825,955718994
-400225,580047607
178591,785840988
382574,178390503
-113027,197433472
-749927,455535889
-669517,639030457
-64557,5248317719
175498,798957825
-284960,681335449
-706742,652450562
-425201,169441223
162496,404994965
386874,36643219
-46899,4303283691
-627578,133056641
-552152,620704651
-5978,59864616394
157003,045623779
-431339,073989868
-1026229,93908691
-825624,889907837
-186828,613176346
96221,0047836304
-324334,146087646
-875602,235458374
-726212,60848999
-72452,6236019135
223818,902648926
-232308,346572876
-745925,745788574
-565123,297317505
-22017,4807701111
197018,882873535
-197870,055557251
-685702,488296509
-487552,456794739
201376,264415741
520602,442771912
17215,3071136475
-654819,031082153
-609412,717056274
-59003,844575882
231357,282493591
-130530,06880188
-630864,814926147
-434418,390556335
284849,486114502
664379,414329529
293748,794662476
-227350,089691162
-140547,816741943
355177,607099533
604967,612014771
269960,283493042
-188876,554351807
-16901,5225524902
631194,08347702
955972,379272461
560484,798461914
47106,0985870361
160796,543716431
669229,170919418
900592,747009277
513470,200012207
1881,08183288574
132835,675537109
707101,711038589
926846,588600159
461585,128677368
-20001,6836547852
204927,73651123
805781,307361603
1053274,2906723
591973,642852783
-89582,0964508057
-160729,491607666
282811,817584991
476688,701202393
82339,3677368164
-291299,82673645
-8701,13396453857
605927,57116127
899904,135406494
542937,415390015
-48455,8093261719
-94944,2600784302
353226,315702438
567510,713020325
157534,81137085
-305042,822280884
-136199,349136353
393704,765295029
661054,054374695
369760,798141479
-79015,5580291748
29904,4491424561
629813,334838867
961970,713981628
570804,949279785
26567,837890625
67307,1592941284
491422,350357056
703625,152702332
363119,292938232
-158810,769866943
-159814,775436401
245747,001485825
344096,313598633
-177597,929946899
-650907,616912842
-408715,559303284
152490,834833145
320603,781486511
-263604,463577271
-1083361,20426941
-1151927,0758667
-523547,511537552
-158947,509887695
-587248,746841431
-1127707,18913269
-968885,862487793
-395987,27388382
-59016,0490112305
-265651,807159424
-584997,594406128
-251975,431671143
547591,489362717
878919,306488037
299321,531829834
-447063,300094604
-490433,029800415
-58462,1444244385
196265,002044678
-70941,9390411377
-470934,669906616
-241510,299682617
485613,258031845
816344,944541931
264091,876358032
-485516,758041382
-490074,176544189
55067,4014892578
336442,58694458
-91207,3229827881
-731228,1378479
-692350,596733093
-55954,2167797089
317620,661125183
-37933,8610687256
-498670,92098999
-289575,864837646
304048,017404556
556124,574882507
115440,127700806
-526186,55380249
-513956,628875732
64792,9129524231
381301,968574524
6910,22959899902
-457239,253250122
-269963,661911011
304053,272722244
563192,349121094
154762,526092529
-436137,931915283
-370797,715576172
236811,937520981
550067,153656006
160472,035293579
-298065,132217407
-104751,803512573
439711,146345139
668157,966499329
227121,778396606
-453889,559265137
-517893,443481445
-17034,7766151428
205971,219924927
-273311,05847168
-763675,193725586
-522932,873886108
97486,626953125
426004,74269104
107611,498184204
-471506,492645264
-460638,151199341
85641,0724010468
315628,998970032
-176769,755828857
-697171,112594604
-525492,890487671
-2765,95788764954
235027,984619141
-164201,768188477
-800246,672561646
-784861,51852417
-176220,012243271
131411,102363586
-326751,108016968
-875888,44367981
-749105,98928833
-240810,391710281
63086,3631668091
-177940,205703735
-651103,983520508
-532410,519256592
122039,984222412
422813,76525116
-63061,4253082275
-648238,016204834
-595196,893829346
-176638,691242218
62654,854133606
-187600,506027222
-594915,110946655
-383094,216873169
340133,603748322
680676,457389832
179695,901412964
-469651,815856934
-446172,564910889
-3545,04065704346
233060,984390259
-92049,9821929932
-613002,283203125
-500553,273132324
183603,077705383
549245,733047485
93657,5024871826
-507361,845657349
-410455,63899231
125178,735960007
432109,417327881
110033,667617798
-490898,848739624
-515858,183822632
5455,94830513
241395,635429382
-223777,551132202
-698473,808425903
-450508,27180481
145899,030736923
443065,768379211
134177,137817383
-375329,303039551
-217181,934051514
543106,496047974
986672,649497986
611482,249130249
57777,0562438965
124907,731155396
578069,29753685
816521,904273987
502461,280044556
-40372,9448547363
-4228,99261474609
619341,952060699
990432,730079651
605570,304107666
89855,2426452637
225109,390808105
751853,431043625
1021025,27187347
666710,449539185
47921,7160949707
-17748,2203521729
468596,187320709
748416,309997559
409046,141052246
34222,9393005371
278684,023498535
825623,137088776
1071003,91898346
663227,446533203
-55253,6716766357
-244334,802825928
96591,1479530334
221591,049476624
-225259,320327759
-629024,557846069
-344012,479217529
276149,594905853
610032,363426208
298711,519378662
-330597,081420898
-382833,646591187
187231,963321686
509973,481544495
54660,6296234131
-547152,819290161
-474492,632354736
32900,3559818268
337644,410812378
78487,3618621826
-377143,858337402
-214917,535720825
461690,897233963
763663,294822693
257173,035003662
-368330,846008301
-313362,415893555
156480,45665741
428151,556480408
150988,817657471
-367276,820953369
-301982,092529297
341373,054010391
702935,803642273
301231,963912964
-232897,010665894
-148033,694320679
282166,77007103
473734,235542297
103715,196670532
-475147,834991455
-402612,026885986
267520,519786835
610303,956954956
188511,622070313
-304878,039093018
-164314,911300659
293458,923622131
517940,519683838
208256,155609131
-317406,935348511
-239171,516540527
394982,865581512
704191,320289612
222114,88243103
-399034,395965576
-335791,51651001
174403,459621429
496612,816192627
247753,708892822
-286199,167663574
-278259,361907959
297660,931747437
635261,213996887
247064,837554932
-297001,63142395
-216736,635070801
273889,481250763
552536,690574646
247317,871582031
-315757,139312744
-312917,666305542
265908,191291809
585305,641441345
152251,319641113
-370101,484420776
-201158,245864868
339906,976219177
633487,118583679
347629,382659912
-214534,349853516
-210960,106063843
400975,471336365
775671,14982605
415217,454223633
-67082,1744232178
56678,6325073242
509831,861026764
737451,187644958
459240,839981079
-1567,49440002441
114342,62121582
767343,419593811
1134442,39560699
783408,214981079
325450,056793213
428404,920501709
827664,16386795
1025977,2865448
748359,93132019
239042,236801147
157514,300827026
524421,182533264
714743,860137939
326973,439926147
-133671,891159058
21008,9113311768
536956,636543274
822662,340759277
527453,411880493
-74215,9094848633
-185549,648162842
239513,77431488
440169,549446106
32624,3268280029
-344011,801544189
-86802,194229126
420786,407238007
650274,328468323
311140,718536377
-342670,54006958
-495224,592559814
-72553,6120109558
135212,427879333
-328545,063232422
-834859,425460815
-670995,362579346
-157649,47410965
125227,550979614
-137738,349777222
-641512,615936279
-558560,668914795
101562,115379333
447630,196517944
24191,6109313965
-486266,854934692
-404291,411270142
-40641,4516143799
140818,332519531
-82166,7062683105
-426214,71635437
-198937,509628296
517970,85398674
886196,726409912
433780,344161987
-222216,051101685
-285671,825714111
65382,7136974335
293846,082557678
44939,7260742188
