time,value
0.0,-112286
0.0019230769230769232,-90522
0.0038461538461538464,-81373
0.0057692307692307696,-77019
0.007692307692307693,-76716
0.009615384615384616,-76787
0.011538461538461539,-64137
0.013461538461538462,-38050
0.015384615384615385,-17217
0.01730769230769231,-20213
0.019230769230769232,-37281
0.021153846153846155,-51743
0.023076923076923078,-57958
0.025,-52792
0.026923076923076925,-41589
0.028846153846153848,-31897
0.03076923076923077,-26553
0.032692307692307694,-30286
0.03461538461538462,-37256
0.03653846153846154,-31307
0.038461538461538464,-13941
0.04038461538461539,-1733
0.04230769230769231,-2894
0.04423076923076923,-8933
0.046153846153846156,-10676
0.04807692307692308,-10167
0.05,-10531
0.051923076923076926,-13010
0.05384615384615385,-21227
0.05576923076923077,-36644
0.057692307692307696,-48090
0.05961538461538462,-42661
0.06153846153846154,-28165
0.06346153846153846,-16585
0.06538461538461539,-9171
0.0673076923076923,-6197
0.06923076923076923,-4771
0.07115384615384615,452
0.07307692307692308,7228
0.075,6400
0.07692307692307693,2038
0.07884615384615384,2036
0.08076923076923077,499
0.08269230769230769,-6598
0.08461538461538462,-18184
0.08653846153846154,-23274
0.08846153846153847,-11443
0.09038461538461538,2512
0.09230769230769231,5545
0.09423076923076923,6786
0.09615384615384616,20195
0.09807692307692308,41263
0.1,48690
0.10192307692307692,42481
0.10384615384615385,28135
0.10576923076923077,-429
0.1076923076923077,-28759
0.10961538461538461,-35580
0.11153846153846154,-17136
0.11346153846153846,8616
0.11538461538461539,23832
0.11730769230769231,32419
0.11923076923076924,32594
0.12115384615384615,24539
0.12307692307692308,22081
0.125,25970
0.12692307692307692,28125
0.12884615384615383,25211
0.13076923076923078,22461
0.1326923076923077,30590
0.1346153846153846,42414
0.13653846153846153,35046
0.13846153846153847,11844
0.14038461538461539,-40
0.1423076923076923,8664
0.14423076923076922,27895
0.14615384615384616,45102
0.14807692307692308,49400
0.15,38488
0.1519230769230769,19505
0.15384615384615385,1975
0.15576923076923077,-8306
0.1576923076923077,-6848
0.1596153846153846,5666
0.16153846153846155,17014
0.16346153846153846,26132
0.16538461538461538,41059
0.1673076923076923,51561
0.16923076923076924,40182
0.17115384615384616,15876
0.17307692307692307,5496
0.175,8273
0.17692307692307693,11993
0.17884615384615385,20536
0.18076923076923077,31219
0.18269230769230768,32497
0.18461538461538463,23135
0.18653846153846154,15799
0.18846153846153846,19307
0.19038461538461537,26368
0.19230769230769232,27245
0.19423076923076923,25719
0.19615384615384615,30033
0.19807692307692307,32929
0.2,23275
0.20192307692307693,9398
0.20384615384615384,6107
0.20576923076923076,17559
0.2076923076923077,34964
0.20961538461538462,41041
0.21153846153846154,26502
0.21346153846153845,2957
0.2153846153846154,-7831
0.2173076923076923,408
0.21923076923076923,14463
0.22115384615384615,16248
0.2230769230769231,586
0.225,-19577
0.22692307692307692,-28621
0.22884615384615384,-21358
0.23076923076923078,-3711
0.2326923076923077,12370
0.23461538461538461,16544
0.23653846153846153,9434
0.23846153846153847,332
0.2403846153846154,-4936
0.2423076923076923,-7485
0.24423076923076922,-9135
0.24615384615384617,-12815
0.24807692307692308,-19027
0.25,-15206
0.2519230769230769,1662
0.25384615384615383,13935
0.25576923076923075,19447
0.25769230769230766,25981
0.25961538461538464,21795
0.26153846153846155,4680
0.26346153846153847,-8825
0.2653846153846154,-13437
0.2673076923076923,-14278
0.2692307692307692,-18001
0.27115384615384613,-23547
0.27307692307692305,-25145
0.275,-23861
0.27692307692307694,-20302
0.27884615384615385,-14535
0.28076923076923077,-8663
0.2826923076923077,-665
0.2846153846153846,6880
0.2865384615384615,1688
0.28846153846153844,-13154
0.2903846153846154,-22038
0.2923076923076923,-25946
0.29423076923076924,-33615
0.29615384615384616,-38915
0.2980769230769231,-31878
0.3,-20071
0.3019230769230769,-14328
0.3038461538461538,-14109
0.3057692307692308,-12787
0.3076923076923077,-6630
0.3096153846153846,-6634
0.31153846153846154,-20689
0.31346153846153846,-34109
0.3153846153846154,-39745
0.3173076923076923,-43271
0.3192307692307692,-36360
0.3211538461538462,-18761
0.3230769230769231,-5789
0.325,-121
0.3269230769230769,1298
0.32884615384615384,-3768
0.33076923076923076,-12496
0.3326923076923077,-18833
0.3346153846153846,-20124
0.33653846153846156,-16828
0.3384615384615385,-11973
0.3403846153846154,-5452
0.3423076923076923,3196
0.34423076923076923,9633
0.34615384615384615,14623
0.34807692307692306,23822
0.35,34478
0.35192307692307695,39009
0.35384615384615387,36367
0.3557692307692308,34788
0.3576923076923077,38987
0.3596153846153846,40689
0.36153846153846153,41028
0.36346153846153845,48892
0.36538461538461536,62863
0.36730769230769234,78690
0.36923076923076925,83605
0.37115384615384617,73426
0.3730769230769231,68996
0.375,73098
0.3769230769230769,63785
0.37884615384615383,39280
0.38076923076923075,21194
0.38269230769230766,17613
0.38461538461538464,16124
0.38653846153846155,8114
0.38846153846153847,2569
0.3903846153846154,13714
0.3923076923076923,33455
0.3942307692307692,38045
0.39615384615384613,19830
0.39807692307692305,-5577
0.4,-23503
0.40192307692307694,-37519
0.40384615384615385,-53140
0.40576923076923077,-60755
0.4076923076923077,-46057
0.4096153846153846,-20042
0.4115384615384615,-10684
0.41346153846153844,-19017
0.4153846153846154,-26401
0.4173076923076923,-23690
0.41923076923076924,-11855
0.42115384615384616,-400
0.4230769230769231,734
0.425,-7261
0.4269230769230769,-19850
0.4288461538461538,-35103
0.4307692307692308,-44240
0.4326923076923077,-38186
0.4346153846153846,-24556
0.43653846153846154,-16050
0.43846153846153846,-13053
0.4403846153846154,-13371
0.4423076923076923,-19225
0.4442307692307692,-33157
0.4461538461538462,-53156
0.4480769230769231,-66653
0.45,-53578
0.4519230769230769,-9940
0.45384615384615384,35973
0.45576923076923076,64774
0.4576923076923077,90555
0.4596153846153846,129230
0.46153846153846156,188501
0.4634615384615385,270351
0.4653846153846154,357575
0.4673076923076923,420902
0.46923076923076923,447706
0.47115384615384615,449054
0.47307692307692306,436597
0.475,403053
0.47692307692307695,340485
0.47884615384615387,265061
0.4807692307692308,189933
0.4826923076923077,98901
0.4846153846153846,-16389
0.48653846153846153,-130498
0.48846153846153845,-212662
0.49038461538461536,-259153
0.49230769230769234,-288849
0.49423076923076925,-307397
0.49615384615384617,-304036
0.4980769230769231,-274163
0.5,-226498
0.5019230769230769,-185081
0.5038461538461538,-160864
0.5057692307692307,-140339
0.5076923076923077,-120365
0.5096153846153846,-108134
0.5115384615384615,-106034
0.5134615384615384,-110460
0.5153846153846153,-107053
0.5173076923076924,-93722
0.5192307692307693,-79702
0.5211538461538462,-60441
0.5230769230769231,-47573
0.525,-55852
0.5269230769230769,-63421
0.5288461538461539,-57174
0.5307692307692308,-53449
0.5326923076923077,-56732
0.5346153846153846,-57901
0.5365384615384615,-56902
0.5384615384615384,-56391
0.5403846153846154,-60570
0.5423076923076923,-72699
0.5442307692307692,-78202
0.5461538461538461,-66338
0.5480769230769231,-55740
0.55,-58221
0.551923076923077,-59840
0.5538461538461539,-54145
0.5557692307692308,-46546
0.5576923076923077,-39687
0.5596153846153846,-39103
0.5615384615384615,-52330
0.5634615384615385,-66665
0.5653846153846154,-64133
0.5673076923076923,-47354
0.5692307692307692,-30559
0.5711538461538461,-28424
0.573076923076923,-40570
0.575,-55297
0.5769230769230769,-65081
0.5788461538461539,-70621
0.5807692307692308,-68589
0.5826923076923077,-56740
0.5846153846153846,-48570
0.5865384615384616,-45462
0.5884615384615385,-40441
0.5903846153846154,-37853
0.5923076923076923,-36519
0.5942307692307692,-33516
0.5961538461538461,-34810
0.5980769230769231,-42759
0.6,-50186
0.6019230769230769,-50760
0.6038461538461538,-49037
0.6057692307692307,-49728
0.6076923076923076,-48883
0.6096153846153847,-49957
0.6115384615384616,-51557
0.6134615384615385,-42776
0.6153846153846154,-33689
0.6173076923076923,-37656
0.6192307692307693,-44214
0.6211538461538462,-41921
0.6230769230769231,-30236
0.625,-7018
0.6269230769230769,13167
0.6288461538461538,6943
0.6307692307692307,-16008
0.6326923076923077,-30490
0.6346153846153846,-31461
0.6365384615384615,-24873
0.6384615384615384,-11300
0.6403846153846153,5257
0.6423076923076924,16167
0.6442307692307693,18820
0.6461538461538462,17967
0.6480769230769231,13128
0.65,2501
0.6519230769230769,-1361
0.6538461538461539,13831
0.6557692307692308,39810
0.6576923076923077,44887
0.6596153846153846,18588
0.6615384615384615,-124
0.6634615384615384,14375
0.6653846153846154,40487
0.6673076923076923,57586
0.6692307692307692,64113
0.6711538461538461,58255
0.6730769230769231,53027
0.675,70536
0.676923076923077,95805
0.6788461538461539,100346
0.6807692307692308,85885
0.6826923076923077,67774
0.6846153846153846,68039
0.6865384615384615,96141
0.6884615384615385,126373
0.6903846153846154,139912
0.6923076923076923,148869
0.6942307692307692,158385
0.6961538461538461,161061
0.698076923076923,159225
0.7,155839
0.7019230769230769,149311
0.7038461538461539,140395
0.7057692307692308,135739
0.7076923076923077,143064
0.7096153846153846,151917
0.7115384615384616,148234
0.7134615384615385,140254
0.7153846153846154,139708
0.7173076923076923,145928
0.7192307692307692,149533
0.7211538461538461,142446
0.7230769230769231,126731
0.725,111006
0.7269230769230769,103167
0.7288461538461538,98438
0.7307692307692307,86647
0.7326923076923076,78365
0.7346153846153847,86934
0.7365384615384616,100091
0.7384615384615385,95716
0.7403846153846154,66115
0.7423076923076923,33389
0.7442307692307693,19862
0.7461538461538462,9988
0.7480769230769231,-8930
0.75,-24876
0.7519230769230769,-40951
0.7538461538461538,-62355
0.7557692307692307,-77440
0.7576923076923077,-86164
0.7596153846153846,-90623
0.7615384615384615,-87244
0.7634615384615384,-85576
0.7653846153846153,-93347
0.7673076923076924,-109510
0.7692307692307693,-130730
0.7711538461538462,-152252
0.7730769230769231,-168000
0.775,-170862
0.7769230769230769,-164848
0.7788461538461539,-156302
0.7807692307692308,-150234
0.7826923076923077,-160224
0.7846153846153846,-182084
0.7865384615384615,-195672
0.7884615384615384,-193246
0.7903846153846154,-184082
0.7923076923076923,-184349
0.7942307692307692,-196582
0.7961538461538461,-214130
0.7980769230769231,-227879
0.8,-222999
0.801923076923077,-201710
0.8038461538461539,-183540
0.8057692307692308,-175519
0.8076923076923077,-172161
0.8096153846153846,-169450
0.8115384615384615,-170767
0.8134615384615385,-175122
0.8153846153846154,-175698
0.8173076923076923,-175689
0.8192307692307692,-177939
0.8211538461538461,-175210
0.823076923076923,-166150
0.825,-163940
0.8269230769230769,-169627
0.8288461538461539,-166681
0.8307692307692308,-158036
0.8326923076923077,-157195
0.8346153846153846,-154832
0.8365384615384616,-142054
0.8384615384615385,-132297
0.8403846153846154,-134411
0.8423076923076923,-138545
0.8442307692307692,-136291
0.8461538461538461,-134839
0.8480769230769231,-139956
0.85,-139487
0.8519230769230769,-128630
0.8538461538461538,-118707
0.8557692307692307,-114500
0.8576923076923076,-118770
0.8596153846153847,-128088
0.8615384615384616,-127255
0.8634615384615385,-109127
0.8653846153846154,-86075
0.8673076923076923,-78843
0.8692307692307693,-85837
0.8711538461538462,-93640
0.8730769230769231,-104339
0.875,-114702
0.8769230769230769,-110912
0.8788461538461538,-94313
0.8807692307692307,-86442
0.8826923076923077,-98437
0.8846153846153846,-105393
0.8865384615384615,-92168
0.8884615384615384,-76152
0.8903846153846153,-63959
0.8923076923076924,-56723
0.8942307692307693,-56764
0.8961538461538462,-61306
0.8980769230769231,-69733
0.9,-69667
0.9019230769230769,-61052
0.9038461538461539,-63291
0.9057692307692308,-76446
0.9076923076923077,-83633
0.9096153846153846,-71712
0.9115384615384615,-40682
0.9134615384615384,-12372
0.9153846153846154,-9109
0.9173076923076923,-19211
0.9192307692307692,-26673
0.9211538461538461,-36389
0.9230769230769231,-45637
0.925,-42078
0.926923076923077,-28114
0.9288461538461539,-21168
0.9307692307692308,-31564
0.9326923076923077,-50235
0.9346153846153846,-60775
0.9365384615384615,-58702
0.9384615384615385,-48081
0.9403846153846154,-29795
0.9423076923076923,-6862
0.9442307692307692,9082
0.9461538461538461,6736
0.948076923076923,-11645
0.95,-27624
0.9519230769230769,-18216
0.9538461538461539,18686
0.9557692307692308,56014
0.9576923076923077,67565
0.9596153846153846,59855
0.9615384615384616,51923
0.9634615384615385,43408
0.9653846153846154,36763
0.9673076923076923,44894
0.9692307692307692,59681
0.9711538461538461,62660
0.9730769230769231,54072
0.975,40967
0.9769230769230769,29285
0.9788461538461538,32331
0.9807692307692307,55487
0.9826923076923076,84493
0.9846153846153847,105809
0.9865384615384616,115253
0.9884615384615385,110145
0.9903846153846154,92150
0.9923076923076923,71273
0.9942307692307693,60899
0.9961538461538462,59921
0.9980769230769231,58773
1.0,58729
1.001923076923077,59063
1.0038461538461538,53364
1.0057692307692307,49345
1.0076923076923077,60751
1.0096153846153846,88474
1.0115384615384615,117320
1.0134615384615384,126045
1.0153846153846153,113645
1.0173076923076922,98476
1.0192307692307692,88418
1.021153846153846,74415
1.023076923076923,57020
1.025,49641
1.0269230769230768,55033
1.0288461538461537,61020
1.0307692307692307,58173
1.0326923076923078,50916
1.0346153846153847,50344
1.0365384615384616,64682
1.0384615384615385,84379
1.0403846153846155,92897
1.0423076923076924,87652
1.0442307692307693,78103
1.0461538461538462,74712
1.0480769230769231,74181
1.05,71086
1.051923076923077,71492
1.0538461538461539,81232
1.0557692307692308,95848
1.0576923076923077,109198
1.0596153846153846,114774
1.0615384615384615,100521
1.0634615384615385,79653
1.0653846153846154,76596
1.0673076923076923,86082
1.0692307692307692,102397
1.0711538461538461,115996
1.073076923076923,108915
1.075,92214
1.0769230769230769,81987
1.0788461538461538,79454
1.0807692307692307,83523
1.0826923076923076,89768
1.0846153846153845,93918
1.0865384615384615,95326
1.0884615384615384,98385
1.0903846153846153,104135
1.0923076923076922,105846
1.0942307692307693,103788
1.0961538461538463,104732
1.0980769230769232,109358
1.1,111653
1.101923076923077,109456
1.103846153846154,107051
1.1057692307692308,105256
1.1076923076923078,105164
1.1096153846153847,102307
1.1115384615384616,91105
1.1134615384615385,83662
1.1153846153846154,82109
1.1173076923076923,73313
1.1192307692307693,62146
1.1211538461538462,63191
1.123076923076923,71993
1.125,75782
1.126923076923077,80409
1.1288461538461538,85965
1.1307692307692307,77031
1.1326923076923077,67171
1.1346153846153846,83344
1.1365384615384615,120940
1.1384615384615384,152634
1.1403846153846153,156005
1.1423076923076922,135074
1.1442307692307692,111219
1.146153846153846,96912
1.148076923076923,86913
1.15,77757
1.1519230769230768,79450
1.1538461538461537,85138
1.1557692307692307,83402
1.1576923076923078,82205
1.1596153846153847,90762
1.1615384615384616,107330
1.1634615384615385,114253
1.1653846153846155,108795
1.1673076923076924,107961
1.1692307692307693,113670
1.1711538461538462,121303
1.1730769230769231,127237
1.175,127889
1.176923076923077,126492
1.1788461538461539,123644
1.1807692307692308,116444
1.1826923076923077,108105
1.1846153846153846,109067
1.1865384615384615,113658
1.1884615384615385,105075
1.1903846153846154,92386
1.1923076923076923,85173
1.1942307692307692,74661
1.1961538461538461,62283
1.198076923076923,55597
1.2,53429
1.2019230769230769,53935
1.2038461538461538,57893
1.2057692307692307,61756
1.2076923076923076,57412
1.2096153846153845,44700
1.2115384615384615,30079
1.2134615384615384,13767
1.2153846153846153,-1454
1.2173076923076922,-9911
1.2192307692307693,-9924
1.2211538461538463,-4741
1.2230769230769232,-1790
1.225,-2674
1.226923076923077,-6084
1.228846153846154,-11743
1.2307692307692308,-17051
1.2326923076923078,-18383
1.2346153846153847,-13166
1.2365384615384616,-4619
1.2384615384615385,-2720
1.2403846153846154,-10992
1.2423076923076923,-16876
1.2442307692307693,-10387
1.2461538461538462,-3177
1.248076923076923,-8097
1.25,-19584
1.251923076923077,-21207
1.2538461538461538,-11386
1.2557692307692307,-15051
1.2576923076923077,-35473
1.2596153846153846,-43395
1.2615384615384615,-32603
1.2634615384615384,-24918
1.2653846153846153,-25411
1.2673076923076922,-16172
1.2692307692307692,12968
1.271153846153846,55479
1.273076923076923,93328
1.275,119851
1.2769230769230768,154685
1.2788461538461537,214350
1.2807692307692307,296033
1.2826923076923078,382756
1.2846153846153847,452925
1.2865384615384616,489157
1.2884615384615385,482790
1.2903846153846155,444916
1.2923076923076924,394809
1.2942307692307693,332470
1.2961538461538462,250870
1.2980769230769231,148405
1.3,24738
1.301923076923077,-103113
1.3038461538461539,-212066
1.3057692307692308,-288249
1.3076923076923077,-317199
1.3096153846153846,-303973
1.3115384615384615,-280801
1.3134615384615385,-259556
1.3153846153846154,-228417
1.3173076923076923,-187357
1.3192307692307692,-146902
1.3211538461538461,-116343
1.323076923076923,-93302
1.325,-73549
1.3269230769230769,-64076
1.3288461538461538,-61420
1.3307692307692307,-48954
1.3326923076923076,-26161
1.3346153846153845,-10926
1.3365384615384615,-15370
1.3384615384615384,-32657
1.3403846153846153,-43945
1.3423076923076922,-41907
1.3442307692307693,-36282
1.3461538461538463,-33635
1.3480769230769232,-35468
1.35,-44180
1.351923076923077,-55708
1.353846153846154,-59971
1.3557692307692308,-50538
1.3576923076923078,-27968
1.3596153846153847,-220
1.3615384615384616,16959
1.3634615384615385,15763
1.3653846153846154,4979
1.3673076923076923,-7656
1.3692307692307693,-16703
1.3711538461538462,-19508
1.373076923076923,-21056
1.375,-20521
1.376923076923077,-12771
1.3788461538461538,146
1.3807692307692307,3929
1.3826923076923077,-8213
1.3846153846153846,-16648
1.3865384615384615,-6857
1.3884615384615384,9489
1.3903846153846153,16116
1.3923076923076922,11057
1.3942307692307692,4207
1.396153846153846,2346
1.398076923076923,4216
1.4,3923
1.4019230769230768,-1745
1.4038461538461537,-2607
1.4057692307692307,9296
1.4076923076923078,23911
1.4096153846153847,25944
1.4115384615384616,10739
1.4134615384615385,-9932
1.4153846153846155,-21028
1.4173076923076924,-15113
1.4192307692307693,5472
1.4211538461538462,22303
1.4230769230769231,17406
1.425,6444
1.426923076923077,15416
1.4288461538461539,32961
1.4307692307692308,37787
1.4326923076923077,33522
1.4346153846153846,29752
1.4365384615384615,27583
1.4384615384615385,25014
1.4403846153846154,23476
1.4423076923076923,27945
1.4442307692307692,32648
1.4461538461538461,28796
1.448076923076923,23509
1.45,19276
1.4519230769230769,16103
1.4538461538461538,23133
1.4557692307692307,34337
1.4576923076923076,37060
1.4596153846153845,35506
1.4615384615384615,39001
1.4634615384615384,42681
1.4653846153846153,38608
1.4673076923076922,36527
1.4692307692307693,41684
1.4711538461538463,45325
1.4730769230769232,50836
1.475,59258
1.476923076923077,60265
1.478846153846154,57354
1.4807692307692308,61546
1.4826923076923078,69177
1.4846153846153847,72246
1.4865384615384616,77178
1.4884615384615385,90420
1.4903846153846154,101953
1.4923076923076923,104506
1.4942307692307693,107735
1.4961538461538462,117692
1.498076923076923,125991
1.5,124619
1.501923076923077,117163
1.5038461538461538,114653
1.5057692307692307,126084
1.5076923076923077,144090
1.5096153846153846,148909
1.5115384615384615,142894
1.5134615384615384,140838
1.5153846153846153,143211
1.5173076923076922,148124
1.5192307692307692,152538
1.521153846153846,148616
1.523076923076923,138606
1.525,137333
1.5269230769230768,145257
1.5288461538461537,151710
1.5307692307692307,157196
1.5326923076923078,155740
1.5346153846153847,140640
1.5365384615384616,130328
1.5384615384615385,141268
1.5403846153846155,160758
1.5423076923076924,164807
1.5442307692307693,148785
1.5461538461538462,126600
1.5480769230769231,101536
1.55,74487
1.551923076923077,58075
1.5538461538461539,53704
1.5557692307692308,47911
1.5576923076923077,33330
1.5596153846153846,14928
1.5615384615384615,-4703
1.5634615384615385,-24439
1.5653846153846154,-35265
1.5673076923076923,-33620
1.5692307692307692,-30929
1.5711538461538461,-43308
1.573076923076923,-73000
1.575,-108563
1.5769230769230769,-134428
1.5788461538461538,-140598
1.5807692307692307,-138693
1.5826923076923076,-150408
1.5846153846153845,-173256
1.5865384615384615,-184051
1.5884615384615384,-181665
1.5903846153846153,-184066
1.5923076923076922,-190177
1.5942307692307693,-189832
1.5961538461538463,-185051
1.5980769230769232,-181755
1.6,-186420
1.601923076923077,-202476
1.603846153846154,-218146
1.6057692307692308,-218673
1.6076923076923078,-208025
1.6096153846153847,-200490
1.6115384615384616,-199388
1.6134615384615385,-204358
1.6153846153846154,-216890
1.6173076923076923,-224128
1.6192307692307693,-214482
1.6211538461538462,-198729
1.623076923076923,-192027
1.625,-196154
1.626923076923077,-203903
1.6288461538461538,-208158
1.6307692307692307,-207587
1.6326923076923077,-203268
1.6346153846153846,-195947
1.6365384615384615,-187311
1.6384615384615384,-178590
1.6403846153846153,-173582
1.6423076923076922,-176471
1.6442307692307692,-182738
1.646153846153846,-181487
1.648076923076923,-175778
1.65,-176518
1.6519230769230768,-176200
1.6538461538461537,-169840
1.6557692307692307,-171325
1.6576923076923078,-178739
1.6596153846153847,-173634
1.6615384615384616,-154142
1.6634615384615385,-137874
1.6653846153846155,-140800
1.6673076923076924,-152331
1.6692307692307693,-154443
1.6711538461538462,-153077
1.6730769230769231,-152504
1.675,-142953
1.676923076923077,-131890
1.6788461538461539,-137442
1.6807692307692308,-154087
1.6826923076923077,-161031
1.6846153846153846,-150446
1.6865384615384615,-132092
1.6884615384615385,-122984
1.6903846153846154,-125865
1.6923076923076923,-131024
1.6942307692307692,-138410
1.6961538461538461,-149004
1.698076923076923,-156089
1.7,-155566
1.7019230769230769,-146772
1.7038461538461538,-130427
1.7057692307692307,-116869
1.7076923076923076,-116518
1.7096153846153845,-122504
1.7115384615384615,-121598
1.7134615384615384,-117705
1.7153846153846153,-124351
1.7173076923076922,-130372
1.7192307692307693,-119301
1.7211538461538463,-106240
1.7230769230769232,-110021
1.725,-123539
1.726923076923077,-133289
1.728846153846154,-135376
1.7307692307692308,-123087
1.7326923076923078,-97494
1.7346153846153847,-79661
1.7365384615384616,-80906
1.7384615384615385,-87180
1.7403846153846154,-91665
1.7423076923076923,-99950
1.7442307692307693,-102190
1.7461538461538462,-90321
1.748076923076923,-77872
1.75,-79050
1.751923076923077,-90855
1.7538461538461538,-100610
1.7557692307692307,-103029
1.7576923076923077,-96868
1.7596153846153846,-84846
1.7615384615384615,-78462
1.7634615384615384,-78402
1.7653846153846153,-80008
1.7673076923076922,-84104
1.7692307692307692,-85246
1.771153846153846,-80527
1.773076923076923,-72225
1.775,-62199
1.7769230769230768,-57215
1.7788461538461537,-62146
1.7807692307692307,-72813
1.7826923076923078,-80383
1.7846153846153847,-80773
1.7865384615384616,-75117
1.7884615384615385,-62039
1.7903846153846155,-43456
1.7923076923076924,-31078
1.7942307692307693,-30532
1.7961538461538462,-36870
1.7980769230769231,-50834
1.8,-64572
1.801923076923077,-57283
1.8038461538461539,-37533
1.8057692307692308,-29042
1.8076923076923077,-27278
1.8096153846153846,-29955
1.8115384615384615,-41589
1.8134615384615385,-45130
1.8153846153846154,-36179
1.8173076923076923,-33181
1.8192307692307692,-33736
1.8211538461538461,-23960
1.823076923076923,-9070
1.825,-2209
1.8269230769230769,-9817
1.8288461538461538,-26425
1.8307692307692307,-40832
1.8326923076923076,-42086
1.8346153846153845,-24812
1.8365384615384615,-4538
1.8384615384615384,1782
1.8403846153846153,-2039
1.8423076923076922,-9036
1.8442307692307693,-20930
1.8461538461538463,-36502
1.8480769230769232,-40752
1.85,-25369
1.851923076923077,-1893
1.853846153846154,11637
1.8557692307692308,7736
1.8576923076923078,-2397
1.8596153846153847,-10511
1.8615384615384616,-14572
1.8634615384615385,-7473
1.8653846153846154,4497
1.8673076923076923,4664
1.8692307692307693,-6605
1.8711538461538462,-12885
1.873076923076923,-4617
1.875,2921
1.876923076923077,-6208
1.8788461538461538,-7939
1.8807692307692307,17475
1.8826923076923077,38707
1.8846153846153846,35173
1.8865384615384615,23062
1.8884615384615384,17296
1.8903846153846153,18726
1.8923076923076922,18074
1.8942307692307692,19811
1.896153846153846,33386
1.898076923076923,44150
1.9,37540
1.9019230769230768,20549
1.9038461538461537,7993
1.9057692307692307,8606
1.9076923076923078,15975
1.9096153846153847,22593
1.9115384615384616,29827
1.9134615384615385,35503
1.9153846153846155,36887
1.9173076923076924,36477
1.9192307692307693,36169
1.9211538461538462,35113
1.9230769230769231,37071
1.925,44969
1.926923076923077,50382
1.9288461538461539,45470
1.9307692307692308,35855
1.9326923076923077,27000
1.9346153846153846,16872
1.9365384615384615,13159
1.9384615384615385,23727
1.9403846153846154,45048
1.9423076923076923,73763
1.9442307692307692,103069
1.9461538461538461,122833
1.948076923076923,125502
1.95,114865
1.9519230769230769,108213
1.9538461538461538,114484
1.9557692307692307,127266
1.9576923076923076,138779
1.9596153846153845,143567
1.9615384615384615,138695
1.9634615384615384,127759
1.9653846153846153,117474
1.9673076923076922,113212
1.9692307692307693,114553
1.9711538461538463,119592
1.9730769230769232,129523
1.975,139316
1.976923076923077,141922
1.978846153846154,138747
1.9807692307692308,135098
1.9826923076923078,136403
1.9846153846153847,144210
1.9865384615384616,154950
1.9884615384615385,163298
1.9903846153846154,169534
1.9923076923076923,178284
1.9942307692307693,184928
1.9961538461538462,182359
1.998076923076923,170555
2.0,154991
2.001923076923077,142344
2.003846153846154,137178
2.0057692307692307,146919
2.0076923076923077,167405
2.0096153846153846,172886
2.0115384615384615,153648
2.0134615384615384,130401
2.0153846153846153,118244
2.0173076923076922,113175
2.019230769230769,107652
2.021153846153846,98988
2.023076923076923,90679
2.025,82157
2.026923076923077,69638
2.0288461538461537,58841
2.0307692307692307,54363
2.0326923076923076,53498
2.0346153846153845,55206
2.0365384615384614,65345
2.0384615384615383,84972
2.0403846153846152,98667
2.042307692307692,96059
2.044230769230769,87036
2.046153846153846,83290
2.048076923076923,79249
2.05,61005
2.0519230769230767,41226
2.0538461538461537,44244
2.0557692307692306,56203
2.0576923076923075,53382
2.0596153846153844,42838
2.0615384615384613,37545
2.0634615384615387,37441
2.0653846153846156,43932
2.0673076923076925,58430
2.0692307692307694,73478
2.0711538461538463,87690
2.0730769230769233,98901
2.075,98783
2.076923076923077,93006
2.078846153846154,94921
2.080769230769231,111716
2.082692307692308,139261
2.0846153846153848,168563
2.0865384615384617,201013
2.0884615384615386,244134
2.0903846153846155,293222
2.0923076923076924,338066
2.0942307692307693,387115
2.0961538461538463,449741
2.098076923076923,508984
2.1,538541
2.101923076923077,533975
2.103846153846154,506393
2.105769230769231,460998
2.1076923076923078,391643
2.1096153846153847,292646
2.1115384615384616,180592
2.1134615384615385,75015
2.1153846153846154,-18461
2.1173076923076923,-91786
2.1192307692307693,-144834
2.121153846153846,-184699
2.123076923076923,-206107
2.125,-207832
2.126923076923077,-192108
2.128846153846154,-155414
2.1307692307692307,-114492
2.1326923076923077,-93027
2.1346153846153846,-84214
2.1365384615384615,-66164
2.1384615384615384,-40212
2.1403846153846153,-24697
2.1423076923076922,-23164
2.144230769230769,-25255
2.146153846153846,-19468
2.148076923076923,370
2.15,25515
2.151923076923077,37329
2.1538461538461537,29063
2.1557692307692307,13953
2.1576923076923076,10763
2.1596153846153845,20538
2.1615384615384614,23510
2.1634615384615383,11997
2.1653846153846152,525
2.167307692307692,1818
2.169230769230769,13032
2.171153846153846,21819
2.173076923076923,24994
2.175,24777
2.1769230769230767,22905
2.1788461538461537,28238
2.1807692307692306,35385
2.1826923076923075,24263
2.1846153846153844,6033
2.1865384615384613,8362
2.1884615384615387,26530
2.1903846153846156,36086
2.1923076923076925,28297
2.1942307692307694,17320
2.1961538461538463,10458
2.1980769230769233,2468
2.2,-1691
2.201923076923077,6629
2.203846153846154,21530
2.205769230769231,25150
2.207692307692308,15743
2.2096153846153848,12090
2.2115384615384617,14632
2.2134615384615386,7705
2.2153846153846155,-1033
2.2173076923076924,11427
2.2192307692307693,41308
2.2211538461538463,52762
2.223076923076923,32616
2.225,5926
2.226923076923077,-4505
2.228846153846154,4040
2.230769230769231,16167
2.2326923076923078,18318
2.2346153846153847,9728
2.2365384615384616,-3278
2.2384615384615385,-9588
2.2403846153846154,-6050
2.2423076923076923,2264
2.2442307692307693,10323
2.246153846153846,11184
2.248076923076923,9515
2.25,16916
2.251923076923077,27439
2.253846153846154,33168
2.2557692307692307,36650
2.2576923076923077,35987
2.2596153846153846,28531
2.2615384615384615,17763
2.2634615384615384,10666
2.2653846153846153,14091
2.2673076923076922,25959
2.269230769230769,34565
2.271153846153846,35139
2.273076923076923,39780
2.275,53194
2.276923076923077,63597
2.2788461538461537,71750
2.2807692307692307,83474
2.2826923076923076,89156
2.2846153846153845,84301
2.2865384615384614,69995
2.2884615384615383,50381
2.2903846153846152,40273
2.292307692307692,46987
2.294230769230769,62530
2.296153846153846,72499
2.298076923076923,73601
2.3,72019
2.3019230769230767,77394
2.3038461538461537,98678
2.3057692307692306,122974
2.3076923076923075,136099
2.3096153846153844,146189
2.3115384615384613,155801
2.3134615384615387,151628
2.3153846153846156,132832
2.3173076923076925,118314
2.3192307692307694,124299
2.3211538461538463,143629
2.3230769230769233,153499
2.325,150586
2.326923076923077,152571
2.328846153846154,156021
2.330769230769231,148702
2.332692307692308,148776
2.3346153846153848,163833
2.3365384615384617,176814
2.3384615384615386,188688
2.3403846153846155,200837
2.3423076923076924,193427
2.3442307692307693,160099
2.3461538461538463,130320
2.348076923076923,130303
2.35,145049
2.351923076923077,150466
2.353846153846154,144012
2.355769230769231,134233
2.3576923076923078,130768
2.3596153846153847,125884
2.3615384615384616,106461
2.3634615384615385,86449
2.3653846153846154,80440
2.3673076923076923,79994
2.3692307692307693,76040
2.371153846153846,68682
2.373076923076923,54942
2.375,26830
2.376923076923077,-8518
2.378846153846154,-27458
2.3807692307692307,-27148
2.3826923076923077,-33900
2.3846153846153846,-58439
2.3865384615384615,-83300
2.3884615384615384,-95157
2.3903846153846153,-96734
2.3923076923076922,-98886
2.394230769230769,-111879
2.396153846153846,-133016
2.398076923076923,-147884
2.4,-148373
2.401923076923077,-138002
2.4038461538461537,-127683
2.4057692307692307,-132061
2.4076923076923076,-154203
2.4096153846153845,-176717
2.4115384615384614,-187774
2.4134615384615383,-194754
2.4153846153846152,-194331
2.417307692307692,-181703
2.419230769230769,-173595
2.421153846153846,-172660
2.423076923076923,-167146
2.425,-159896
2.4269230769230767,-159451
2.4288461538461537,-176608
2.4307692307692306,-205690
2.4326923076923075,-217044
2.4346153846153844,-204066
2.4365384615384613,-190666
2.4384615384615387,-190696
2.4403846153846156,-199032
2.4423076923076925,-204890
2.4442307692307694,-205453
2.4461538461538463,-201656
2.4480769230769233,-189766
2.45,-177020
2.451923076923077,-169972
2.453846153846154,-170534
2.455769230769231,-185243
2.457692307692308,-203411
2.4596153846153848,-207034
2.4615384615384617,-192665
2.4634615384615386,-167503
2.4653846153846155,-145093
2.4673076923076924,-142269
2.4692307692307693,-162278
2.4711538461538463,-176739
2.473076923076923,-166686
2.475,-158845
2.476923076923077,-172757
2.478846153846154,-187863
2.480769230769231,-189562
2.4826923076923078,-192026
2.4846153846153847,-199361
2.4865384615384616,-194160
2.4884615384615385,-171224
2.4903846153846154,-143531
2.4923076923076923,-123702
2.4942307692307693,-115384
2.496153846153846,-115427
2.498076923076923,-122992
2.5,-135587
2.501923076923077,-145678
2.503846153846154,-150561
2.5057692307692307,-150422
2.5076923076923077,-141697
2.5096153846153846,-124205
2.5115384615384615,-115209
2.5134615384615384,-127982
2.5153846153846153,-149978
2.5173076923076922,-160099
2.519230769230769,-147473
2.521153846153846,-127730
2.523076923076923,-124982
2.525,-139977
2.526923076923077,-154149
2.5288461538461537,-154119
2.5307692307692307,-140924
2.5326923076923076,-116455
2.5346153846153845,-91808
2.5365384615384614,-84053
2.5384615384615383,-89753
2.5403846153846152,-93958
2.542307692307692,-92195
2.544230769230769,-88938
2.546153846153846,-92170
2.548076923076923,-106595
2.55,-121617
2.5519230769230767,-124490
2.5538461538461537,-117267
2.5557692307692306,-106986
2.5576923076923075,-98949
2.5596153846153844,-98376
2.5615384615384613,-101089
2.5634615384615387,-99024
2.5653846153846156,-100101
2.5673076923076925,-112777
2.5692307692307694,-125009
2.5711538461538463,-121112
2.5730769230769233,-104277
2.575,-93722
2.576923076923077,-96642
2.578846153846154,-100757
2.580769230769231,-97104
2.582692307692308,-85463
2.5846153846153848,-72590
2.5865384615384617,-68067
2.5884615384615386,-75046
2.5903846153846155,-88007
2.5923076923076924,-93450
2.5942307692307693,-89228
2.5961538461538463,-88909
2.598076923076923,-94181
2.6,-93152
2.601923076923077,-87289
2.603846153846154,-87756
2.605769230769231,-91164
2.6076923076923078,-86750
2.6096153846153847,-79523
2.6115384615384616,-85411
2.6134615384615385,-93999
2.6153846153846154,-85852
2.6173076923076923,-75821
2.6192307692307693,-76866
2.621153846153846,-77518
2.623076923076923,-71697
2.625,-59272
2.626923076923077,-48568
2.628846153846154,-55085
2.6307692307692307,-67090
2.6326923076923077,-65461
2.6346153846153846,-60479
2.6365384615384615,-64349
2.6384615384615384,-70713
2.6403846153846153,-71161
2.6423076923076922,-71014
2.644230769230769,-80829
2.646153846153846,-87779
2.648076923076923,-73673
2.65,-48145
2.651923076923077,-30811
2.6538461538461537,-27495
2.6557692307692307,-31488
2.6576923076923076,-37466
2.6596153846153845,-40154
2.6615384615384614,-37737
2.6634615384615383,-39346
2.6653846153846152,-45740
2.667307692307692,-45208
2.669230769230769,-41919
2.671153846153846,-51813
2.673076923076923,-64351
2.675,-58485
2.6769230769230767,-42691
2.6788461538461537,-35276
2.6807692307692306,-29748
2.6826923076923075,-17016
2.6846153846153844,-12682
2.6865384615384613,-22804
2.6884615384615387,-33273
2.6903846153846156,-38582
2.6923076923076925,-39110
2.6942307692307694,-38369
2.6961538461538463,-42041
2.6980769230769233,-44636
2.7,-41801
2.701923076923077,-39763
2.703846153846154,-43002
2.705769230769231,-46325
2.707692307692308,-40917
2.7096153846153848,-39085
2.7115384615384617,-50978
2.7134615384615386,-56854
2.7153846153846155,-48940
2.7173076923076924,-40231
2.7192307692307693,-33411
2.7211538461538463,-26501
2.723076923076923,-20185
2.725,-15645
2.726923076923077,-16151
2.728846153846154,-14886
2.730769230769231,-6119
2.7326923076923078,1168
2.7346153846153847,-351
2.7365384615384616,-6307
2.7384615384615385,-8706
2.7403846153846154,-8979
2.7423076923076923,-11784
2.7442307692307693,-11345
2.746153846153846,-1785
2.748076923076923,13169
2.75,29137
2.751923076923077,45847
2.753846153846154,57863
2.7557692307692307,54019
2.7576923076923077,39629
2.7596153846153846,30168
2.7615384615384615,27206
2.7634615384615384,29659
2.7653846153846153,33568
2.7673076923076922,28997
2.769230769230769,18317
2.771153846153846,9813
2.773076923076923,8029
2.775,17621
2.776923076923077,31251
2.7788461538461537,36980
2.7807692307692307,38745
2.7826923076923076,35222
2.7846153846153845,22211
2.7865384615384614,10725
2.7884615384615383,4725
2.7903846153846152,-5487
2.792307692307692,-26564
2.794230769230769,-49142
2.796153846153846,-54441
2.798076923076923,-38502
2.8,-18447
2.8019230769230767,-9956
2.8038461538461537,-9196
2.8057692307692306,-7404
2.8076923076923075,-3370
2.8096153846153844,3236
2.8115384615384613,8374
2.8134615384615387,3703
2.8153846153846156,-5052
2.8173076923076925,-5703
2.8192307692307694,-3241
2.8211538461538463,-5316
2.8230769230769233,-6383
2.825,-591
2.826923076923077,3133
2.828846153846154,-2369
2.830769230769231,-3176
2.832692307692308,7448
2.8346153846153848,18721
2.8365384615384617,26812
2.8384615384615386,29766
2.8403846153846155,22857
2.8423076923076924,15008
2.8442307692307693,23234
2.8461538461538463,51833
2.848076923076923,76846
2.85,77809
2.851923076923077,78344
2.853846153846154,105035
2.855769230769231,150242
2.8576923076923078,198546
2.8596153846153847,243540
2.8615384615384616,291055
2.8634615384615385,354385
2.8653846153846154,424550
2.8673076923076923,478152
2.8692307692307693,501998
2.871153846153846,492623
2.873076923076923,452677
2.875,385057
2.876923076923077,301450
2.878846153846154,211538
2.8807692307692307,103858
2.8826923076923077,-21809
2.8846153846153846,-135835
2.8865384615384615,-208751
2.8884615384615384,-231356
2.8903846153846153,-223037
2.8923076923076922,-214546
2.894230769230769,-212683
2.896153846153846,-201511
2.898076923076923,-171012
2.9,-125717
2.901923076923077,-77891
2.9038461538461537,-48397
2.9057692307692307,-48379
2.9076923076923076,-57103
2.9096153846153845,-45667
2.9115384615384614,-22180
2.9134615384615383,-12380
2.9153846153846152,-7396
2.917307692307692,13178
2.919230769230769,35602
2.921153846153846,41415
2.923076923076923,37562
2.925,27315
2.9269230769230767,10451
2.9288461538461537,-726
2.9307692307692306,783
2.9326923076923075,8846
2.9346153846153844,12633
2.9365384615384613,7370
2.9384615384615387,1379
2.9403846153846156,8251
2.9423076923076925,26867
2.9442307692307694,39434
2.9461538461538463,39736
2.9480769230769233,39558
2.95,48361
2.951923076923077,69210
2.953846153846154,88245
2.955769230769231,85500
2.957692307692308,73356
2.9596153846153848,75060
2.9615384615384617,90015
2.9634615384615386,104722
2.9653846153846155,109131
2.9673076923076924,104745
2.9692307692307693,99741
2.9711538461538463,97453
2.973076923076923,93298
2.975,83197
2.976923076923077,74741
2.978846153846154,78590
2.980769230769231,92488
2.9826923076923078,107123
2.9846153846153847,117700
2.9865384615384616,119719
2.9884615384615385,107771
2.9903846153846154,89884
2.9923076923076923,85207
2.9942307692307693,98483
2.996153846153846,111746
2.998076923076923,110458
3.0,101099
3.001923076923077,91045
3.003846153846154,79259
3.0057692307692307,68864
3.0076923076923077,66003
3.0096153846153846,71605
3.0115384615384615,87917
3.0134615384615384,110686
3.0153846153846153,119230
3.0173076923076922,109613
3.019230769230769,102263
3.021153846153846,109072
3.023076923076923,122521
3.025,129252
3.026923076923077,127495
3.0288461538461537,123379
3.0307692307692307,117031
3.0326923076923076,109854
3.0346153846153845,108940
3.0365384615384614,112218
3.0384615384615383,115910
3.0403846153846152,123386
3.042307692307692,130414
3.044230769230769,133855
3.046153846153846,141190
3.048076923076923,154905
3.05,165529
3.0519230769230767,161014
3.0538461538461537,146016
3.0557692307692306,135420
3.0576923076923075,136828
3.0596153846153844,153788
3.0615384615384613,177591
3.0634615384615387,188005
3.0653846153846156,177979
3.0673076923076925,161508
3.0692307692307694,160497
3.0711538461538463,186125
3.0730769230769233,219734
3.075,230536
3.076923076923077,215758
3.078846153846154,200931
3.080769230769231,200869
3.082692307692308,207234
3.0846153846153848,212577
3.0865384615384617,213013
3.0884615384615386,209652
3.0903846153846155,213936
3.0923076923076924,221615
3.0942307692307693,217834
3.0961538461538463,210589
3.098076923076923,213384
3.1,223400
3.101923076923077,230453
3.103846153846154,226903
3.105769230769231,220636
3.1076923076923078,224367
3.1096153846153847,228228
3.1115384615384616,215404
3.1134615384615385,190074
3.1153846153846154,173009
3.1173076923076923,172629
3.1192307692307693,176415
3.121153846153846,174239
3.123076923076923,163529
3.125,147688
3.126923076923077,135467
3.128846153846154,130088
3.1307692307692307,128491
3.1326923076923077,127318
3.1346153846153846,123952
3.1365384615384615,115330
3.1384615384615384,100248
3.1403846153846153,78748
3.1423076923076922,51891
3.144230769230769,28853
3.146153846153846,21064
3.148076923076923,22561
3.15,10545
3.151923076923077,-20511
3.1538461538461537,-46204
3.1557692307692307,-56198
3.1576923076923076,-66463
3.1596153846153845,-81043
3.1615384615384614,-94421
3.1634615384615383,-104255
3.1653846153846152,-102698
3.167307692307692,-98303
3.169230769230769,-107273
3.171153846153846,-121803
3.173076923076923,-131284
3.175,-131252
3.1769230769230767,-122351
3.1788461538461537,-113958
3.1807692307692306,-112542
3.1826923076923075,-118988
3.1846153846153844,-128436
3.1865384615384613,-133933
3.1884615384615387,-135313
3.1903846153846156,-134290
3.1923076923076925,-135233
3.1942307692307694,-141265
3.1961538461538463,-141193
3.1980769230769233,-131242
3.2,-123217
3.201923076923077,-122382
3.203846153846154,-123485
3.205769230769231,-122959
3.207692307692308,-123961
3.2096153846153848,-123269
3.2115384615384617,-113018
3.2134615384615386,-98761
3.2153846153846155,-94831
3.2173076923076924,-109504
3.2192307692307693,-130006
3.2211538461538463,-133181
3.223076923076923,-121925
3.225,-112490
3.226923076923077,-106827
3.228846153846154,-103560
3.230769230769231,-105918
3.2326923076923078,-109155
3.2346153846153847,-104352
3.2365384615384616,-97133
3.2384615384615385,-95923
3.2403846153846154,-98775
3.2423076923076923,-98851
3.2442307692307693,-85243
3.246153846153846,-64105
3.248076923076923,-64559
3.25,-89010
3.251923076923077,-106079
3.253846153846154,-97408
3.2557692307692307,-73446
3.2576923076923077,-59983
3.2596153846153846,-67676
3.2615384615384615,-78154
3.2634615384615384,-77926
3.2653846153846153,-76944
3.2673076923076922,-85893
3.269230769230769,-96235
3.271153846153846,-91334
3.273076923076923,-71254
3.275,-51290
3.276923076923077,-46328
3.2788461538461537,-59509
3.2807692307692307,-73757
3.2826923076923076,-69222
3.2846153846153845,-53400
3.2865384615384614,-47409
3.2884615384615383,-53550
3.2903846153846152,-61692
3.292307692307692,-64442
3.294230769230769,-55388
3.296153846153846,-35578
3.298076923076923,-26200
3.3,-43190
3.3019230769230767,-64838
3.3038461538461537,-67689
3.3057692307692306,-57808
3.3076923076923075,-46698
3.3096153846153844,-40669
3.3115384615384613,-43032
3.3134615384615387,-49109
3.3153846153846156,-56937
3.3173076923076925,-64443
3.3192307692307694,-58049
3.3211538461538463,-41202
3.3230769230769233,-34690
3.325,-34398
3.326923076923077,-23891
3.328846153846154,-13126
3.330769230769231,-19678
3.332692307692308,-38417
3.3346153846153848,-53572
3.3365384615384617,-58705
3.3384615384615386,-54997
3.3403846153846155,-38897
3.3423076923076924,-18043
3.3442307692307693,-12328
3.3461538461538463,-21476
3.348076923076923,-36305
3.35,-53018
3.351923076923077,-60181
3.353846153846154,-49680
3.355769230769231,-28649
3.3576923076923078,-10227
3.3596153846153847,-9356
3.3615384615384616,-27963
3.3634615384615385,-39222
3.3653846153846154,-22671
3.3673076923076923,1617
3.3692307692307693,4129
3.371153846153846,-10128
3.373076923076923,-21228
3.375,-29878
3.376923076923077,-39674
3.378846153846154,-46692
3.3807692307692307,-52745
3.3826923076923077,-59934
3.3846153846153846,-63865
3.3865384615384615,-57579
3.3884615384615384,-40225
3.3903846153846153,-23425
3.3923076923076922,-16069
3.394230769230769,-16384
3.396153846153846,-23046
3.398076923076923,-30740
3.4,-32568
3.401923076923077,-31539
3.4038461538461537,-34162
3.4057692307692307,-42492
3.4076923076923076,-53436
3.4096153846153845,-62407
3.4115384615384614,-65469
3.4134615384615383,-58552
3.4153846153846152,-45208
3.417307692307692,-33587
3.419230769230769,-27850
3.421153846153846,-31996
3.423076923076923,-44247
3.425,-56226
3.4269230769230767,-61358
3.4288461538461537,-57809
3.4307692307692306,-48314
3.4326923076923075,-41393
3.4346153846153844,-49938
3.4365384615384613,-64514
3.4384615384615387,-58187
3.4403846153846156,-36745
3.4423076923076925,-27675
3.4442307692307694,-31282
3.4461538461538463,-33470
3.4480769230769233,-34666
3.45,-42062
3.451923076923077,-53645
3.453846153846154,-52903
3.455769230769231,-37654
3.457692307692308,-33083
3.4596153846153848,-45912
3.4615384615384617,-58332
3.4634615384615386,-63913
3.4653846153846155,-62435
3.4673076923076924,-51799
3.4692307692307693,-42600
3.4711538461538463,-50733
3.473076923076923,-73602
3.475,-86929
3.476923076923077,-76228
3.478846153846154,-62857
3.480769230769231,-66252
3.4826923076923078,-71094
3.4846153846153847,-62220
3.4865384615384616,-45419
3.4884615384615385,-34607
3.4903846153846154,-33760
3.4923076923076923,-37493
3.4942307692307693,-48327
3.496153846153846,-62382
3.498076923076923,-69416
3.5,-68129
3.501923076923077,-60864
3.503846153846154,-52966
3.5057692307692307,-48564
3.5076923076923077,-49100
3.5096153846153846,-53597
3.5115384615384615,-58386
3.5134615384615384,-63167
3.5153846153846153,-66918
3.5173076923076922,-68901
3.519230769230769,-68655
3.521153846153846,-64814
3.523076923076923,-61279
3.525,-59991
3.526923076923077,-58280
3.5288461538461537,-53230
3.5307692307692307,-44054
3.5326923076923076,-32557
3.5346153846153845,-20313
3.5365384615384614,-14495
3.5384615384615383,-20341
3.5403846153846152,-32555
3.542307692307692,-47535
3.544230769230769,-61749
3.546153846153846,-67679
3.548076923076923,-63200
3.55,-56683
3.5519230769230767,-55841
3.5538461538461537,-55599
3.5557692307692306,-48442
3.5576923076923075,-38661
3.5596153846153844,-31380
3.5615384615384613,-22887
3.5634615384615387,-15111
3.5653846153846156,-9783
3.5673076923076925,-5025
3.5692307692307694,-3969
3.5711538461538463,-766
3.5730769230769233,11155
3.575,22121
3.576923076923077,28352
3.578846153846154,37182
3.580769230769231,42041
3.582692307692308,33674
3.5846153846153848,21861
3.5865384615384617,15153
3.5884615384615386,8112
3.5903846153846155,2668
3.5923076923076924,6078
3.5942307692307693,8315
3.5961538461538463,-3610
3.598076923076923,-18394
3.6,-19936
3.601923076923077,-13399
3.603846153846154,-12371
3.605769230769231,-15219
3.6076923076923078,-11661
3.6096153846153847,-10139
3.6115384615384616,-26954
3.6134615384615385,-62350
3.6153846153846154,-93740
3.6173076923076923,-97618
3.6192307692307693,-86064
3.621153846153846,-77888
3.623076923076923,-71419
3.625,-68103
3.626923076923077,-67788
3.628846153846154,-61413
3.6307692307692307,-53086
3.6326923076923077,-55829
3.6346153846153846,-61894
3.6365384615384615,-60252
3.6384615384615384,-63863
3.6403846153846153,-82211
3.6423076923076922,-106956
3.644230769230769,-121467
3.646153846153846,-115421
3.648076923076923,-98260
3.65,-82762
3.651923076923077,-71352
3.6538461538461537,-60283
3.6557692307692307,-50527
3.6576923076923076,-47161
3.6596153846153845,-50538
3.6615384615384614,-60660
3.6634615384615383,-73805
3.6653846153846152,-79852
3.667307692307692,-74267
3.669230769230769,-57508
3.671153846153846,-27743
3.673076923076923,10703
3.675,44439
3.6769230769230767,79352
3.6788461538461537,136819
3.6807692307692306,214027
3.6826923076923075,294776
3.6846153846153844,361263
3.6865384615384613,397096
3.6884615384615387,409216
3.6903846153846156,405791
3.6923076923076925,376905
3.6942307692307694,319969
3.6961538461538463,246899
3.6980769230769233,165332
3.7,70794
3.701923076923077,-40416
3.703846153846154,-154154
3.705769230769231,-250432
3.707692307692308,-311935
3.7096153846153848,-326872
3.7115384615384617,-321339
3.7134615384615386,-322777
3.7153846153846155,-304889
3.7173076923076924,-254004
3.7192307692307693,-204630
3.7211538461538463,-172886
3.723076923076923,-150438
3.725,-135808
3.726923076923077,-125516
3.728846153846154,-116676
3.730769230769231,-116438
3.7326923076923078,-128252
3.7346153846153847,-136423
3.7365384615384616,-122011
3.7384615384615385,-91887
3.7403846153846154,-68316
3.7423076923076923,-66713
3.7442307692307693,-82562
3.746153846153846,-88964
3.748076923076923,-74093
3.75,-55301
3.751923076923077,-44497
3.753846153846154,-41221
3.7557692307692307,-45460
3.7576923076923077,-55065
3.7596153846153846,-63216
3.7615384615384615,-62715
3.7634615384615384,-52102
3.7653846153846153,-39181
3.7673076923076922,-36446
3.769230769230769,-46803
3.771153846153846,-63872
3.773076923076923,-76952
3.775,-73222
3.776923076923077,-57410
3.7788461538461537,-43945
3.7807692307692307,-35401
3.7826923076923076,-28816
3.7846153846153845,-18716
3.7865384615384614,-7383
3.7884615384615383,-2145
3.7903846153846152,-2927
3.792307692307692,-10582
3.794230769230769,-19867
3.796153846153846,-21486
3.798076923076923,-14049
3.8,416
3.8019230769230767,10854
3.8038461538461537,4385
3.8057692307692306,-6811
3.8076923076923075,-673
3.8096153846153844,18099
3.8115384615384613,27856
3.8134615384615387,22956
3.8153846153846156,16092
3.8173076923076925,16326
3.8192307692307694,18431
3.8211538461538463,16698
3.8230769230769233,15721
3.825,15053
3.826923076923077,11332
3.828846153846154,13770
3.830769230769231,28132
3.832692307692308,44149
3.8346153846153848,49203
3.8365384615384617,45868
3.8384615384615386,43389
3.8403846153846155,44959
3.8423076923076924,52536
3.8442307692307693,58772
3.8461538461538463,58604
3.848076923076923,61493
3.85,72848
3.851923076923077,86655
3.853846153846154,86312
3.855769230769231,72218
3.8576923076923078,71782
3.8596153846153847,90336
3.8615384615384616,103547
3.8634615384615385,101167
3.8653846153846154,96813
3.8673076923076923,101891
3.8692307692307693,117594
3.871153846153846,137853
3.873076923076923,150177
3.875,151350
3.876923076923077,154851
3.878846153846154,171837
3.8807692307692307,196330
3.8826923076923077,217764
3.8846153846153846,225904
3.8865384615384615,217831
3.8884615384615384,210898
3.8903846153846153,213357
3.8923076923076922,210989
3.894230769230769,197360
3.896153846153846,185264
3.898076923076923,186728
3.9,201427
3.901923076923077,225436
3.9038461538461537,249495
3.9057692307692307,259316
3.9076923076923076,249180
3.9096153846153845,233093
3.9115384615384614,231700
3.9134615384615383,243284
3.9153846153846152,258549
3.917307692307692,278173
3.919230769230769,284298
3.921153846153846,263018
3.923076923076923,239841
3.925,242923
3.9269230769230767,269473
3.9288461538461537,297080
3.9307692307692306,304094
3.9326923076923075,280163
3.9346153846153844,244214
3.9365384615384613,227740
3.9384615384615387,232443
3.9403846153846156,237723
3.9423076923076925,235257
3.9442307692307694,235455
3.9461538461538463,240126
3.9480769230769233,241133
3.95,238025
3.951923076923077,230326
3.953846153846154,219050
3.955769230769231,208080
3.957692307692308,194846
3.9596153846153848,174378
3.9615384615384617,148021
3.9634615384615386,121308
3.9653846153846155,99080
3.9673076923076924,88884
3.9692307692307693,93040
3.9711538461538463,96087
3.973076923076923,83176
3.975,60034
3.976923076923077,35332
3.978846153846154,13619
3.980769230769231,4035
3.9826923076923078,6522
3.9846153846153847,1183
3.9865384615384616,-25978
3.9884615384615385,-48601
3.9903846153846154,-41665
3.9923076923076923,-24566
3.9942307692307693,-16405
3.996153846153846,-18519
3.998076923076923,-31731
4.0,-53580
4.001923076923077,-75438
4.003846153846154,-87210
4.005769230769231,-91855
4.007692307692308,-92930
4.009615384615385,-86801
4.0115384615384615,-78391
4.013461538461539,-73034
4.015384615384615,-70986
4.017307692307693,-69306
4.019230769230769,-66859
4.0211538461538465,-67460
4.023076923076923,-67836
4.025,-66015
4.026923076923077,-66381
4.028846153846154,-65943
4.030769230769231,-63943
4.032692307692308,-62707
4.0346153846153845,-62413
4.036538461538462,-65076
4.038461538461538,-66092
4.040384615384616,-59051
4.042307692307692,-47439
4.0442307692307695,-43709
4.046153846153846,-51951
4.048076923076923,-65861
4.05,-83225
4.051923076923077,-97109
4.053846153846154,-93605
4.055769230769231,-70076
4.0576923076923075,-45795
4.059615384615385,-44422
4.061538461538461,-61162
4.063461538461539,-72518
4.065384615384615,-75057
4.0673076923076925,-71945
4.069230769230769,-64219
4.071153846153846,-66729
4.073076923076923,-78734
4.075,-85758
4.076923076923077,-92186
4.078846153846154,-106559
4.0807692307692305,-118449
4.082692307692308,-104672
4.084615384615384,-70193
4.086538461538462,-51874
4.088461538461538,-56128
4.0903846153846155,-54820
4.092307692307692,-40855
4.094230769230769,-32728
4.096153846153846,-31542
4.098076923076923,-21604
4.1,-11856
4.101923076923077,-19269
4.1038461538461535,-38675
4.105769230769231,-59734
4.107692307692307,-74543
4.109615384615385,-82298
4.111538461538461,-81414
4.1134615384615385,-63107
4.115384615384615,-39132
4.117307692307692,-32108
4.119230769230769,-39259
4.121153846153846,-44924
4.123076923076923,-48527
4.125,-53988
4.126923076923077,-56526
4.128846153846154,-55186
4.130769230769231,-56391
4.132692307692308,-64872
4.134615384615385,-74230
4.1365384615384615,-70073
4.138461538461539,-54545
4.140384615384615,-42321
4.142307692307693,-39128
4.144230769230769,-43555
4.1461538461538465,-51305
4.148076923076923,-54478
4.15,-51640
4.151923076923077,-51888
4.153846153846154,-59002
4.155769230769231,-67209
4.157692307692308,-68219
4.1596153846153845,-63453
4.161538461538462,-60111
4.163461538461538,-53520
4.165384615384616,-41131
4.167307692307692,-34686
4.1692307692307695,-42209
4.171153846153846,-55353
4.173076923076923,-59813
4.175,-57950
4.176923076923077,-60507
4.178846153846154,-66316
4.180769230769231,-72570
4.1826923076923075,-72509
4.184615384615385,-62741
4.186538461538461,-53904
4.188461538461539,-47589
4.190384615384615,-42030
4.1923076923076925,-47668
4.194230769230769,-67306
4.196153846153846,-83016
4.198076923076923,-75440
4.2,-51626
4.201923076923077,-36650
4.203846153846154,-38087
4.2057692307692305,-44611
4.207692307692308,-45478
4.209615384615384,-33227
4.211538461538462,-21051
4.213461538461538,-33098
4.2153846153846155,-56324
4.217307692307692,-60317
4.219230769230769,-47761
4.221153846153846,-39905
4.223076923076923,-40736
4.225,-45930
4.226923076923077,-55888
4.2288461538461535,-60107
4.230769230769231,-50635
4.232692307692307,-39301
4.234615384615385,-31296
4.236538461538461,-22663
4.2384615384615385,-15936
4.240384615384615,-11269
4.242307692307692,-9761
4.244230769230769,-16815
4.246153846153846,-29434
4.248076923076923,-37757
4.25,-38538
4.251923076923077,-31842
4.253846153846154,-20609
4.255769230769231,-14944
4.257692307692308,-14106
4.259615384615385,-15770
4.2615384615384615,-28626
4.263461538461539,-46255
4.265384615384615,-47572
4.267307692307693,-23721
4.269230769230769,9191
4.2711538461538465,24449
4.273076923076923,12614
4.275,-9855
4.276923076923077,-21247
4.278846153846154,-21392
4.280769230769231,-20581
4.282692307692308,-16810
4.2846153846153845,-6978
4.286538461538462,2557
4.288461538461538,6613
4.290384615384616,8210
4.292307692307692,11504
4.2942307692307695,14071
4.296153846153846,9592
4.298076923076923,599
4.3,-2620
4.301923076923077,-1768
4.303846153846154,-3607
4.305769230769231,-4179
4.3076923076923075,-949
4.309615384615385,-5315
4.311538461538461,-21805
4.313461538461539,-30764
4.315384615384615,-21406
4.3173076923076925,-7146
4.319230769230769,1203
4.321153846153846,5989
4.323076923076923,9840
4.325,1385
4.326923076923077,-13347
4.328846153846154,-7660
4.3307692307692305,5086
4.332692307692308,-1499
4.334615384615384,-11966
4.336538461538462,-9917
4.338461538461538,-5397
4.3403846153846155,-6644
4.342307692307692,-13104
4.344230769230769,-23769
4.346153846153846,-34917
4.348076923076923,-40433
4.35,-37761
4.351923076923077,-25844
4.3538461538461535,-7206
4.355769230769231,7392
4.357692307692307,11764
4.359615384615385,11971
4.361538461538461,16354
4.3634615384615385,20093
4.365384615384615,11177
4.367307692307692,-3008
4.369230769230769,-5122
4.371153846153846,-819
4.373076923076923,-5889
4.375,-17523
4.376923076923077,-21691
4.378846153846154,-11302
4.380769230769231,7732
4.382692307692308,18722
4.384615384615385,17834
4.3865384615384615,24196
4.388461538461539,39086
4.390384615384615,42799
4.392307692307693,34418
4.394230769230769,30336
4.3961538461538465,36779
4.398076923076923,41839
4.4,36854
4.401923076923077,29763
4.403846153846154,29405
4.405769230769231,37700
4.407692307692308,48576
4.4096153846153845,51330
4.411538461538462,51363
4.413461538461538,55606
4.415384615384616,55654
4.417307692307692,55000
4.4192307692307695,60238
4.421153846153846,62393
4.423076923076923,61147
4.425,62275
4.426923076923077,62137
4.428846153846154,56897
4.430769230769231,50974
4.4326923076923075,45352
4.434615384615385,34002
4.436538461538461,23649
4.438461538461539,23824
4.440384615384615,27717
4.4423076923076925,22347
4.444230769230769,6601
4.446153846153846,-9846
4.448076923076923,-17424
4.45,-12204
4.451923076923077,-5645
4.453846153846154,-13803
4.4557692307692305,-32483
4.457692307692308,-41521
4.459615384615384,-31068
4.461538461538462,-10756
4.463461538461538,4984
4.4653846153846155,6866
4.467307692307692,-1005
4.469230769230769,-2060
4.471153846153846,877
4.473076923076923,-5685
4.475,-13119
4.476923076923077,-21149
4.4788461538461535,-38731
4.480769230769231,-55058
4.482692307692307,-65331
4.484615384615385,-72452
4.486538461538461,-72520
4.4884615384615385,-72306
4.490384615384615,-73491
4.492307692307692,-61048
4.494230769230769,-36056
4.496153846153846,-20611
4.498076923076923,-25159
4.5,-35296
4.501923076923077,-35021
4.503846153846154,-27473
4.505769230769231,-20887
4.507692307692308,-13896
4.509615384615385,-4555
4.5115384615384615,8893
4.513461538461539,37246
4.515384615384615,92572
4.517307692307693,167513
4.519230769230769,244337
4.5211538461538465,314371
4.523076923076923,369420
4.525,406004
4.526923076923077,436624
4.528846153846154,460880
4.530769230769231,451667
4.532692307692308,397085
4.5346153846153845,316597
4.536538461538462,224078
4.538461538461538,114842
4.540384615384616,-7189
4.542307692307692,-119976
4.5442307692307695,-202556
4.546153846153846,-251838
4.548076923076923,-279503
4.55,-301326
4.551923076923077,-319327
4.553846153846154,-318004
4.555769230769231,-288445
4.5576923076923075,-239580
4.559615384615385,-189025
4.561538461538461,-150056
4.563461538461539,-124965
4.565384615384615,-108057
4.5673076923076925,-96755
4.569230769230769,-87084
4.571153846153846,-74974
4.573076923076923,-71469
4.575,-80351
4.576923076923077,-87262
4.578846153846154,-86027
4.5807692307692305,-79613
4.582692307692308,-70324
4.584615384615384,-65709
4.586538461538462,-73312
4.588461538461538,-82780
4.5903846153846155,-77175
4.592307692307692,-65541
4.594230769230769,-60906
4.596153846153846,-55643
4.598076923076923,-46067
4.6,-36605
4.601923076923077,-34451
4.6038461538461535,-40893
4.605769230769231,-44670
4.607692307692307,-43972
4.609615384615385,-47863
4.611538461538461,-57035
4.6134615384615385,-66458
4.615384615384615,-63989
4.617307692307692,-41157
4.619230769230769,-22871
4.621153846153846,-30661
4.623076923076923,-47786
4.625,-55304
4.626923076923077,-48089
4.628846153846154,-25526
4.630769230769231,-4083
4.632692307692308,-952
4.634615384615385,-4818
4.6365384615384615,-7161
4.638461538461539,-16440
4.640384615384615,-29568
4.642307692307693,-32275
4.644230769230769,-21980
4.6461538461538465,-9534
4.648076923076923,-399
4.65,1677
4.651923076923077,-7722
4.653846153846154,-18749
4.655769230769231,-19683
4.657692307692308,-17054
4.6596153846153845,-18442
4.661538461538462,-14271
4.663461538461538,-4608
4.665384615384616,-2054
4.667307692307692,-3468
4.6692307692307695,1216
4.671153846153846,12113
4.673076923076923,16363
4.675,8993
4.676923076923077,6531
4.678846153846154,17435
4.680769230769231,30568
4.6826923076923075,34769
4.684615384615385,29044
4.686538461538461,21478
4.688461538461539,17688
4.690384615384615,14719
4.6923076923076925,15821
4.694230769230769,25284
4.696153846153846,38293
4.698076923076923,45412
4.7,40275
4.701923076923077,34568
4.703846153846154,43857
4.7057692307692305,63597
4.707692307692308,76920
4.709615384615384,76409
4.711538461538462,69396
4.713461538461538,69862
4.7153846153846155,81785
4.717307692307692,91141
4.719230769230769,91564
4.721153846153846,95185
4.723076923076923,102193
4.725,98031
4.726923076923077,89180
4.7288461538461535,91488
4.730769230769231,101674
4.732692307692307,109597
4.734615384615385,111841
4.736538461538461,114989
4.7384615384615385,125831
4.740384615384615,140806
4.742307692307692,153999
4.744230769230769,158705
4.746153846153846,152325
4.748076923076923,147753
4.75,155079
4.751923076923077,170657
4.753846153846154,185454
4.755769230769231,187916
4.757692307692308,180906
4.759615384615385,177126
4.7615384615384615,178685
4.763461538461539,187941
4.765384615384615,199660
4.767307692307693,195777
4.769230769230769,184267
4.7711538461538465,182056
4.773076923076923,179929
4.775,176412
4.776923076923077,179803
4.778846153846154,181308
4.780769230769231,173937
4.782692307692308,164995
4.7846153846153845,159632
4.786538461538462,158241
4.788461538461538,154816
4.790384615384616,136653
4.792307692307692,110663
4.7942307692307695,98655
4.796153846153846,98443
4.798076923076923,91033
4.8,75187
4.801923076923077,63816
4.803846153846154,58543
4.805769230769231,51833
4.8076923076923075,46582
4.809615384615385,46911
4.811538461538461,39586
4.813461538461539,9300
4.815384615384615,-33003
4.8173076923076925,-59568
4.819230769230769,-66562
4.821153846153846,-70335
4.823076923076923,-73868
4.825,-76508
4.826923076923077,-83899
4.828846153846154,-93457
4.8307692307692305,-98848
4.832692307692308,-99945
4.834615384615384,-98079
4.836538461538462,-96102
4.838461538461538,-100283
4.8403846153846155,-108239
4.842307692307692,-110777
4.844230769230769,-113682
4.846153846153846,-120955
4.848076923076923,-119305
4.85,-107119
4.851923076923077,-97630
4.8538461538461535,-99528
4.855769230769231,-107668
4.857692307692307,-114291
4.859615384615385,-119400
4.861538461538461,-119202
4.8634615384615385,-112795
4.865384615384615,-107927
4.867307692307692,-105489
4.869230769230769,-103209
4.871153846153846,-103065
4.873076923076923,-99203
4.875,-83841
4.876923076923077,-67149
4.878846153846154,-59155
4.880769230769231,-56137
4.882692307692308,-56291
4.884615384615385,-59493
4.8865384615384615,-65602
4.888461538461539,-73152
4.890384615384615,-64921
4.892307692307693,-29398
4.894230769230769,7635
4.8961538461538465,19002
4.898076923076923,1136
4.9,-31573
4.901923076923077,-48638
4.903846153846154,-37393
4.905769230769231,-17135
4.907692307692308,-8068
4.9096153846153845,-10745
4.911538461538462,-20327
4.913461538461538,-33632
4.915384615384616,-42946
4.917307692307692,-47905
4.9192307692307695,-45317
4.921153846153846,-23501
4.923076923076923,5109
4.925,15007
4.926923076923077,2252
4.928846153846154,-20773
4.930769230769231,-40486
4.9326923076923075,-49878
4.934615384615385,-45564
4.936538461538461,-29221
4.938461538461539,-10620
4.940384615384615,341
4.9423076923076925,-3239
4.944230769230769,-16207
4.946153846153846,-26054
4.948076923076923,-28740
4.95,-23338
4.951923076923077,-11686
4.953846153846154,-3092
4.9557692307692305,-3732
4.957692307692308,-11040
4.959615384615384,-22510
4.961538461538462,-31582
4.963461538461538,-25946
4.9653846153846155,-6393
4.967307692307692,9408
4.969230769230769,12141
4.971153846153846,10439
4.973076923076923,5805
4.975,-4358
4.976923076923077,-8927
4.9788461538461535,-3771
4.980769230769231,-2659
4.982692307692307,-12514
4.984615384615385,-24759
4.986538461538461,-33569
4.9884615384615385,-37157
4.990384615384615,-32888
4.992307692307692,-22328
4.994230769230769,-9846
4.996153846153846,-6105
4.998076923076923,-18648
5.0,-32064
5.001923076923077,-26004
5.003846153846154,-2793
5.005769230769231,16076
5.007692307692308,13318
5.009615384615385,-321
5.0115384615384615,-3736
5.013461538461539,566
5.015384615384615,-739
5.017307692307693,-5966
5.019230769230769,-6154
5.0211538461538465,-3228
5.023076923076923,-5731
5.025,-13888
5.026923076923077,-19892
5.028846153846154,-20629
5.030769230769231,-19841
5.032692307692308,-16496
5.0346153846153845,-11071
5.036538461538462,-10053
5.038461538461538,-8382
5.040384615384616,-3301
5.042307692307692,-5502
5.0442307692307695,-16174
5.046153846153846,-23006
5.048076923076923,-19819
5.05,-16638
5.051923076923077,-16598
5.053846153846154,-7085
5.055769230769231,11309
5.0576923076923075,22285
5.059615384615385,21605
5.061538461538461,15214
5.063461538461539,2114
5.065384615384615,-13772
5.0673076923076925,-19863
5.069230769230769,-15903
5.071153846153846,-15641
5.073076923076923,-27228
5.075,-41506
5.076923076923077,-46251
5.078846153846154,-43291
5.0807692307692305,-33559
5.082692307692308,-13734
5.084615384615384,12168
5.086538461538462,30463
5.088461538461538,26455
5.0903846153846155,9208
5.092307692307692,1235
5.094230769230769,5833
5.096153846153846,8385
5.098076923076923,534
5.1,-10746
5.101923076923077,-17081
5.1038461538461535,-18789
5.105769230769231,-20056
5.107692307692307,-19514
5.109615384615385,-11208
5.111538461538461,1538
5.1134615384615385,9142
5.115384615384615,13506
5.117307692307692,14049
5.119230769230769,7670
5.121153846153846,11435
5.123076923076923,33024
5.125,52210
5.126923076923077,50808
5.128846153846154,27006
5.130769230769231,-7224
5.132692307692308,-31567
5.134615384615385,-32777
5.1365384615384615,-17948
5.138461538461539,-3186
5.140384615384615,4697
5.142307692307693,3842
5.144230769230769,-5129
5.1461538461538465,-10844
5.148076923076923,-2998
5.15,11325
5.151923076923077,21326
5.153846153846154,27849
5.155769230769231,32695
5.157692307692308,32741
5.1596153846153845,25018
5.161538461538462,10205
5.163461538461538,2152
5.165384615384616,12265
5.167307692307692,29747
5.1692307692307695,43391
5.171153846153846,51881
5.173076923076923,55629
5.175,53139
5.176923076923077,41107
5.178846153846154,20553
5.180769230769231,97
5.1826923076923075,-5802
5.184615384615385,8098
5.186538461538461,31112
5.188461538461539,47703
5.190384615384615,47842
5.1923076923076925,37685
5.194230769230769,31992
5.196153846153846,35851
5.198076923076923,51131
5.2,74712
5.201923076923077,87761
5.203846153846154,81242
5.2057692307692305,73106
5.207692307692308,73975
5.209615384615384,76586
5.211538461538462,82421
5.213461538461538,92206
5.2153846153846155,101993
5.217307692307692,108692
5.219230769230769,104707
5.221153846153846,93268
5.223076923076923,85727
5.225,80999
5.226923076923077,70581
5.2288461538461535,59763
5.230769230769231,55386
5.232692307692307,56061
5.234615384615385,62160
5.236538461538461,63150
5.2384615384615385,55463
5.240384615384615,50590
5.242307692307692,44830
5.244230769230769,34079
5.246153846153846,25659
5.248076923076923,18130
5.25,6338
5.251923076923077,-3812
5.253846153846154,-3846
5.255769230769231,1724
5.257692307692308,5158
5.259615384615385,9143
5.2615384615384615,15416
5.263461538461539,22033
5.265384615384615,27779
5.267307692307693,29272
5.269230769230769,25923
5.2711538461538465,14006
5.273076923076923,-5697
5.275,-11439
5.276923076923077,4816
5.278846153846154,20238
5.280769230769231,19212
5.282692307692308,4048
5.2846153846153845,-15209
5.286538461538462,-26080
5.288461538461538,-23868
5.290384615384616,-14080
5.292307692307692,-7767
5.2942307692307695,-10757
5.296153846153846,-23718
5.298076923076923,-42556
5.3,-47553
5.301923076923077,-23069
5.303846153846154,19470
5.305769230769231,58711
5.3076923076923075,84491
5.309615384615385,102551
5.311538461538461,130081
5.313461538461539,181519
5.315384615384615,252774
5.3173076923076925,320741
5.319230769230769,368467
5.321153846153846,403162
5.323076923076923,431349
5.325,441849
5.326923076923077,423466
5.328846153846154,374617
5.3307692307692305,303016
5.332692307692308,218088
5.334615384615384,120810
5.336538461538462,15068
5.338461538461538,-86874
5.3403846153846155,-177127
5.342307692307692,-245558
5.344230769230769,-281189
5.346153846153846,-290966
5.348076923076923,-283893
5.35,-258580
5.351923076923077,-225069
5.3538461538461535,-201960
5.355769230769231,-188840
5.357692307692307,-169400
5.359615384615385,-142043
5.361538461538461,-121071
5.3634615384615385,-110597
5.365384615384615,-105136
5.367307692307692,-103107
5.369230769230769,-98595
5.371153846153846,-81375
5.373076923076923,-57575
5.375,-44552
5.376923076923077,-47494
5.378846153846154,-55346
5.380769230769231,-57814
5.382692307692308,-62686
5.384615384615385,-71209
5.3865384615384615,-65698
5.388461538461539,-50740
5.390384615384615,-48802
5.392307692307693,-57270
5.394230769230769,-58560
5.3961538461538465,-49313
5.398076923076923,-38907
5.4,-38333
5.401923076923077,-47292
5.403846153846154,-52258
5.405769230769231,-50296
5.407692307692308,-52935
5.4096153846153845,-64571
5.411538461538462,-72897
5.413461538461538,-62066
5.415384615384616,-40418
5.417307692307692,-28088
5.4192307692307695,-23224
5.421153846153846,-19021
5.423076923076923,-16958
5.425,-19158
5.426923076923077,-29820
5.428846153846154,-40413
5.430769230769231,-39068
5.4326923076923075,-32608
5.434615384615385,-31118
5.436538461538461,-32400
5.438461538461539,-32796
5.440384615384615,-29398
5.4423076923076925,-19211
5.444230769230769,-13623
5.446153846153846,-19271
5.448076923076923,-18567
5.45,-4383
5.451923076923077,-192
5.453846153846154,-18474
5.4557692307692305,-37168
5.457692307692308,-34887
5.459615384615384,-17282
5.461538461538462,-3903
5.463461538461538,1257
5.4653846153846155,2890
5.467307692307692,-3357
5.469230769230769,-13871
5.471153846153846,-17719
5.473076923076923,-14828
5.475,-10290
5.476923076923077,-3865
5.4788461538461535,-217
5.480769230769231,-5548
5.482692307692307,-7890
5.484615384615385,5176
5.486538461538461,25167
5.4884615384615385,40179
5.490384615384615,42876
5.492307692307692,30596
5.494230769230769,13652
5.496153846153846,9136
5.498076923076923,21766
5.5,34918
5.501923076923077,37370
5.503846153846154,34438
5.505769230769231,27278
5.507692307692308,22856
5.509615384615385,34140
5.5115384615384615,55768
5.513461538461539,75967
5.515384615384615,92022
5.517307692307693,98751
5.519230769230769,90182
5.5211538461538465,74710
5.523076923076923,67257
5.525,71293
5.526923076923077,78655
5.528846153846154,85432
5.530769230769231,99908
5.532692307692308,116435
5.5346153846153845,112280
5.536538461538462,89650
5.538461538461538,78390
5.540384615384616,94386
5.542307692307692,121418
5.5442307692307695,139938
5.546153846153846,146260
5.548076923076923,137789
5.55,123929
5.551923076923077,124626
5.553846153846154,134493
5.555769230769231,135714
5.5576923076923075,133417
5.559615384615385,142474
5.561538461538461,157218
5.563461538461539,159715
5.565384615384615,150488
5.5673076923076925,146835
5.569230769230769,146515
5.571153846153846,134875
5.573076923076923,119655
5.575,115814
5.576923076923077,123472
5.578846153846154,126601
5.5807692307692305,111437
5.582692307692308,87477
5.584615384615384,68988
5.586538461538462,60377
5.588461538461538,58857
5.5903846153846155,59871
5.592307692307692,64786
5.594230769230769,63788
5.596153846153846,42087
5.598076923076923,10587
5.6,-10971
5.601923076923077,-20157
5.6038461538461535,-22904
5.605769230769231,-26689
5.607692307692307,-38347
5.609615384615385,-54045
5.611538461538461,-70559
5.6134615384615385,-93470
5.615384615384615,-118582
5.617307692307692,-133836
5.619230769230769,-135772
5.621153846153846,-133473
5.623076923076923,-135909
5.625,-142705
5.626923076923077,-157560
5.628846153846154,-174967
5.630769230769231,-174534
5.632692307692308,-161411
5.634615384615385,-160373
5.6365384615384615,-171848
5.638461538461539,-181316
5.640384615384615,-187081
5.642307692307693,-192725
5.644230769230769,-195470
5.6461538461538465,-189926
5.648076923076923,-181863
5.65,-187787
5.651923076923077,-205650
5.653846153846154,-213304
5.655769230769231,-204747
5.657692307692308,-193306
5.6596153846153845,-185331
5.661538461538462,-179243
5.663461538461538,-178161
5.665384615384616,-183811
5.667307692307692,-191776
5.6692307692307695,-196073
5.671153846153846,-184796
5.673076923076923,-152182
5.675,-118465
5.676923076923077,-110124
5.678846153846154,-131074
5.680769230769231,-160369
5.6826923076923075,-173633
5.684615384615385,-166009
5.686538461538461,-148014
5.688461538461539,-134415
5.690384615384615,-133477
5.6923076923076925,-145196
5.694230769230769,-162130
5.696153846153846,-166189
5.698076923076923,-149866
5.7,-126843
5.701923076923077,-116218
5.703846153846154,-123653
5.7057692307692305,-133551
5.707692307692308,-128147
5.709615384615384,-113486
5.711538461538462,-108852
5.713461538461538,-114677
5.7153846153846155,-118081
5.717307692307692,-119252
5.719230769230769,-124614
5.721153846153846,-129032
5.723076923076923,-123530
5.725,-104413
5.726923076923077,-81461
5.7288461538461535,-75444
5.730769230769231,-89216
5.732692307692307,-106239
5.734615384615385,-111396
5.736538461538461,-100155
5.7384615384615385,-85866
5.740384615384615,-84979
5.742307692307692,-93276
5.744230769230769,-90856
5.746153846153846,-74877
5.748076923076923,-67077
5.75,-69885
5.751923076923077,-66314
5.753846153846154,-57280
5.755769230769231,-50854
5.757692307692308,-47271
5.759615384615385,-48465
5.7615384615384615,-57083
5.763461538461539,-65847
5.765384615384615,-68827
5.767307692307693,-65836
5.769230769230769,-52705
5.7711538461538465,-37220
5.773076923076923,-35438
5.775,-37376
5.776923076923077,-24008
5.778846153846154,-4651
5.780769230769231,1730
5.782692307692308,-9018
5.7846153846153845,-29764
5.786538461538462,-52034
5.788461538461538,-64735
5.790384615384616,-58392
5.792307692307692,-40325
5.7942307692307695,-25242
5.796153846153846,-17130
5.798076923076923,-8456
5.8,-3777
5.801923076923077,-15025
5.803846153846154,-26395
5.805769230769231,-22902
5.8076923076923075,-17500
5.809615384615385,-19692
5.811538461538461,-23435
5.813461538461539,-24741
5.815384615384615,-30858
5.8173076923076925,-43523
5.819230769230769,-46318
5.821153846153846,-29034
5.823076923076923,-8738
5.825,-1783
5.826923076923077,-2246
5.828846153846154,-5849
5.8307692307692305,-19719
5.832692307692308,-40892
5.834615384615384,-51806
5.836538461538462,-45412
5.838461538461538,-32218
5.8403846153846155,-23511
5.842307692307692,-20629
5.844230769230769,-15332
5.846153846153846,-4639
5.848076923076923,4085
5.85,8382
5.851923076923077,10342
5.8538461538461535,13936
5.855769230769231,19159
5.857692307692307,13038
5.859615384615385,-4472
5.861538461538461,-13466
5.8634615384615385,-6341
5.865384615384615,3860
5.867307692307692,5926
5.869230769230769,1182
5.871153846153846,-4728
5.873076923076923,-4570
5.875,3976
5.876923076923077,10973
5.878846153846154,11141
5.880769230769231,9989
5.882692307692308,8190
5.884615384615385,7500
5.8865384615384615,10099
5.888461538461539,8751
5.890384615384615,8249
5.892307692307693,17832
5.894230769230769,26102
5.8961538461538465,23989
5.898076923076923,17100
5.9,10728
5.901923076923077,7600
5.903846153846154,12516
5.905769230769231,24638
5.907692307692308,28027
5.9096153846153845,17573
5.911538461538462,11642
5.913461538461538,18332
5.915384615384616,27689
5.917307692307692,31363
5.9192307692307695,28837
5.921153846153846,24321
5.923076923076923,22946
5.925,23639
5.926923076923077,29503
5.928846153846154,47046
5.930769230769231,64744
5.9326923076923075,68584
5.934615384615385,62787
5.936538461538461,59741
5.938461538461539,70092
5.940384615384615,95468
5.9423076923076925,116690
5.944230769230769,115001
5.946153846153846,98496
5.948076923076923,84778
5.95,84621
5.951923076923077,102273
5.953846153846154,124917
5.9557692307692305,132975
5.957692307692308,122378
5.959615384615384,103041
5.961538461538462,91263
5.963461538461538,93574
5.9653846153846155,94466
5.967307692307692,86469
5.969230769230769,81177
5.971153846153846,78942
5.973076923076923,77621
5.975,81641
5.976923076923077,89416
5.9788461538461535,101773
5.980769230769231,121177
5.982692307692307,139318
5.984615384615385,146972
5.986538461538461,141620
5.9884615384615385,127112
5.990384615384615,117067
5.992307692307692,117183
5.994230769230769,116489
5.996153846153846,108157
5.998076923076923,97652
6.0,93197
6.001923076923077,97654
6.003846153846154,103499
6.005769230769231,103526
6.007692307692308,100347
6.009615384615385,93648
6.0115384615384615,77246
6.013461538461539,56929
6.015384615384615,47878
6.017307692307693,46972
6.019230769230769,38468
6.0211538461538465,21284
6.023076923076923,9496
6.025,8611
6.026923076923077,7823
6.028846153846154,2539
6.030769230769231,-1498
6.032692307692308,522
6.0346153846153845,9418
6.036538461538462,17145
6.038461538461538,12116
6.040384615384616,-1444
6.042307692307692,-6746
6.0442307692307695,925
6.046153846153846,14058
6.048076923076923,26068
6.05,32658
6.051923076923077,32437
6.053846153846154,27713
6.055769230769231,22563
6.0576923076923075,11778
6.059615384615385,-5778
6.061538461538461,-11296
6.063461538461539,-1322
6.065384615384615,3762
6.0673076923076925,57
6.069230769230769,5231
6.071153846153846,20206
6.073076923076923,23874
6.075,16891
6.076923076923077,24402
6.078846153846154,62992
6.0807692307692305,122628
6.082692307692308,169212
6.084615384615384,194395
6.086538461538462,224958
6.088461538461538,275953
6.0903846153846155,342034
6.092307692307692,411876
6.094230769230769,472871
6.096153846153846,507335
6.098076923076923,505914
6.1,469730
6.101923076923077,401587
6.1038461538461535,316002
6.105769230769231,221427
6.107692307692307,115450
6.109615384615385,9102
6.111538461538461,-86279
6.1134615384615385,-168944
6.115384615384615,-232580
6.117307692307692,-270828
6.119230769230769,-280608
6.121153846153846,-259464
6.123076923076923,-215246
6.125,-165879
6.126923076923077,-126651
6.128846153846154,-103445
6.130769230769231,-92154
6.132692307692308,-84406
6.134615384615385,-74584
6.1365384615384615,-64438
6.138461538461539,-58468
6.140384615384615,-54257
6.142307692307693,-50603
6.144230769230769,-44959
6.1461538461538465,-25237
6.148076923076923,-544
6.15,5536
6.151923076923077,-4725
6.153846153846154,-16632
6.155769230769231,-24161
6.157692307692308,-24183
6.1596153846153845,-15084
6.161538461538462,-9730
6.163461538461538,-18749
6.165384615384616,-28624
6.167307692307692,-27232
6.1692307692307695,-17783
6.171153846153846,-5628
6.173076923076923,2134
6.175,3490
6.176923076923077,3579
6.178846153846154,-984
6.180769230769231,-13682
6.1826923076923075,-28632
6.184615384615385,-36051
6.186538461538461,-30246
6.188461538461539,-17910
6.190384615384615,-8904
6.1923076923076925,-9363
6.194230769230769,-12819
6.196153846153846,-2767
6.198076923076923,11940
6.2,9562
6.201923076923077,-3817
6.203846153846154,-11529
6.2057692307692305,-11597
6.207692307692308,-8459
6.209615384615384,-1819
6.211538461538462,11220
6.213461538461538,22710
6.2153846153846155,20800
6.217307692307692,10957
6.219230769230769,1705
6.221153846153846,-5340
6.223076923076923,-1800
6.225,9645
6.226923076923077,7913
6.2288461538461535,-7209
6.230769230769231,-10606
6.232692307692307,1735
6.234615384615385,7560
6.236538461538461,3375
6.2384615384615385,6772
6.240384615384615,23332
6.242307692307692,42936
6.244230769230769,48217
6.246153846153846,29127
6.248076923076923,1428
6.25,-6614
6.251923076923077,14541
6.253846153846154,39305
6.255769230769231,37358
6.257692307692308,19188
6.259615384615385,15034
6.2615384615384615,29409
6.263461538461539,48858
6.265384615384615,61091
6.267307692307693,54856
6.269230769230769,39387
6.2711538461538465,35395
6.273076923076923,39070
6.275,41185
6.276923076923077,44348
6.278846153846154,48989
6.280769230769231,53926
6.282692307692308,59649
6.2846153846153845,63632
6.286538461538462,63521
6.288461538461538,69044
6.290384615384616,88753
6.292307692307692,107843
6.2942307692307695,108610
6.296153846153846,98522
6.298076923076923,90671
6.3,86624
6.301923076923077,89218
6.303846153846154,98390
6.305769230769231,110238
6.3076923076923075,118635
6.309615384615385,117505
6.311538461538461,113984
6.313461538461539,114061
6.315384615384615,112481
6.3173076923076925,113414
6.319230769230769,125911
6.321153846153846,145864
6.323076923076923,161995
6.325,164555
6.326923076923077,158166
6.328846153846154,156318
6.3307692307692305,159612
6.332692307692308,162521
6.334615384615384,165851
6.336538461538462,166135
6.338461538461538,160761
6.3403846153846155,156629
6.342307692307692,151892
6.344230769230769,139713
6.346153846153846,126436
6.348076923076923,122409
6.35,128413
6.351923076923077,137138
6.3538461538461535,137652
6.355769230769231,120453
6.357692307692307,90631
6.359615384615385,71189
6.361538461538461,71744
6.3634615384615385,72346
6.365384615384615,57598
6.367307692307692,32749
6.369230769230769,14087
6.371153846153846,12104
6.373076923076923,9483
6.375,-7269
6.376923076923077,-25278
6.378846153846154,-42586
6.380769230769231,-68173
6.382692307692308,-92980
6.384615384615385,-108932
6.3865384615384615,-124885
6.388461538461539,-140765
6.390384615384615,-150564
6.392307692307693,-158379
6.394230769230769,-166435
6.3961538461538465,-171491
6.398076923076923,-167489
6.4,-153226
6.401923076923077,-141485
6.403846153846154,-144745
6.405769230769231,-158299
6.407692307692308,-170671
6.4096153846153845,-179907
6.411538461538462,-185596
6.413461538461538,-186521
6.415384615384616,-184240
6.417307692307692,-175793
6.4192307692307695,-168092
6.421153846153846,-172246
6.423076923076923,-179329
6.425,-181518
6.426923076923077,-180028
6.428846153846154,-172168
6.430769230769231,-159006
6.4326923076923075,-149132
6.434615384615385,-152696
6.436538461538461,-167283
6.438461538461539,-176872
6.440384615384615,-175012
6.4423076923076925,-160839
6.444230769230769,-133494
6.446153846153846,-115185
6.448076923076923,-124465
6.45,-143994
6.451923076923077,-152613
6.453846153846154,-151008
6.4557692307692305,-148521
6.457692307692308,-148871
6.459615384615384,-152373
6.461538461538462,-159386
6.463461538461538,-166527
6.4653846153846155,-165755
6.467307692307692,-153362
6.469230769230769,-137559
6.471153846153846,-130956
6.473076923076923,-132745
6.475,-129861
6.476923076923077,-121323
6.4788461538461535,-114304
6.480769230769231,-109823
6.482692307692307,-113927
6.484615384615385,-125890
6.486538461538461,-128749
6.4884615384615385,-116328
6.490384615384615,-98753
6.492307692307692,-88279
6.494230769230769,-93825
6.496153846153846,-108811
6.498076923076923,-115509
6.5,-110959
6.501923076923077,-104824
6.503846153846154,-100023
6.505769230769231,-96538
6.507692307692308,-98966
6.509615384615385,-108050
6.5115384615384615,-111881
6.513461538461539,-101192
6.515384615384615,-83587
6.517307692307693,-66231
6.519230769230769,-57524
6.5211538461538465,-66904
6.523076923076923,-81006
6.525,-83871
6.526923076923077,-80744
6.528846153846154,-79576
6.530769230769231,-79603
6.532692307692308,-77580
6.5346153846153845,-72039
6.536538461538462,-67700
6.538461538461538,-69638
6.540384615384616,-70634
6.542307692307692,-59149
6.5442307692307695,-35273
6.546153846153846,-14482
6.548076923076923,-21424
6.55,-54884
6.551923076923077,-76142
6.553846153846154,-71612
6.555769230769231,-67645
6.5576923076923075,-73905
6.559615384615385,-78615
6.561538461538461,-75310
6.563461538461539,-63963
6.565384615384615,-55318
6.5673076923076925,-55734
6.569230769230769,-53622
6.571153846153846,-46356
6.573076923076923,-41092
6.575,-40080
6.576923076923077,-42263
6.578846153846154,-41992
6.5807692307692305,-39375
6.582692307692308,-43484
6.584615384615384,-52362
6.586538461538462,-56102
6.588461538461538,-45740
6.5903846153846155,-25052
6.592307692307692,-20902
6.594230769230769,-36061
6.596153846153846,-47930
6.598076923076923,-52834
6.6,-53516
6.601923076923077,-50922
6.6038461538461535,-48473
6.605769230769231,-45677
6.607692307692307,-43451
6.609615384615385,-44981
6.611538461538461,-47961
6.6134615384615385,-43445
6.615384615384615,-28052
6.617307692307692,-12311
6.619230769230769,-10649
6.621153846153846,-29002
6.623076923076923,-55077
6.625,-71036
6.626923076923077,-71271
6.628846153846154,-57028
6.630769230769231,-38774
6.632692307692308,-27851
6.634615384615385,-23523
6.6365384615384615,-24579
6.638461538461539,-28531
6.640384615384615,-29478
6.642307692307693,-31546
6.644230769230769,-43378
6.6461538461538465,-55913
6.648076923076923,-52285
6.65,-43150
6.651923076923077,-47894
6.653846153846154,-58132
6.655769230769231,-61809
6.657692307692308,-58229
6.6596153846153845,-46714
6.661538461538462,-30918
6.663461538461538,-17441
6.665384615384616,-11593
6.667307692307692,-11225
6.6692307692307695,-12574
6.671153846153846,-20851
6.673076923076923,-32277
6.675,-39403
6.676923076923077,-42272
6.678846153846154,-31486
6.680769230769231,-14186
6.6826923076923075,-19640
6.684615384615385,-39568
6.686538461538461,-38162
6.688461538461539,-17913
6.690384615384615,-8486
6.6923076923076925,-15160
6.694230769230769,-21793
6.696153846153846,-21225
6.698076923076923,-18506
6.7,-14411
6.701923076923077,-4566
6.703846153846154,5689
6.7057692307692305,4335
6.707692307692308,-2764
6.709615384615384,-6857
6.711538461538462,-16616
6.713461538461538,-32855
6.7153846153846155,-45273
6.717307692307692,-39244
6.719230769230769,-11765
6.721153846153846,13394
6.723076923076923,16222
6.725,4464
6.726923076923077,-1526
6.7288461538461535,3596
6.730769230769231,11278
6.732692307692307,20365
6.734615384615385,32904
6.736538461538461,43879
6.7384615384615385,44490
6.740384615384615,29935
6.742307692307692,6093
6.744230769230769,-17867
6.746153846153846,-30771
6.748076923076923,-20205
6.75,7757
6.751923076923077,33338
6.753846153846154,49844
6.755769230769231,56318
6.757692307692308,46521
6.759615384615385,29143
6.7615384615384615,25009
6.763461538461539,39422
6.765384615384615,58320
6.767307692307693,70528
6.769230769230769,74830
6.7711538461538465,64803
6.773076923076923,42620
6.775,35182
6.776923076923077,54103
6.778846153846154,73025
6.780769230769231,75823
6.782692307692308,74954
6.7846153846153845,76459
6.786538461538462,77373
6.788461538461538,86998
6.790384615384616,107839
6.792307692307692,119806
6.7942307692307695,114773
6.796153846153846,105958
6.798076923076923,104765
6.8,116849
6.801923076923077,134011
6.803846153846154,137541
6.805769230769231,133202
6.8076923076923075,139388
6.809615384615385,145182
6.811538461538461,134357
6.813461538461539,121467
6.815384615384615,124240
6.8173076923076925,131661
6.819230769230769,128871
6.821153846153846,121517
6.823076923076923,117087
6.825,110132
6.826923076923077,92407
6.828846153846154,67701
6.8307692307692305,49459
6.832692307692308,42469
6.834615384615384,42376
6.836538461538462,46252
6.838461538461538,48311
6.8403846153846155,45386
6.842307692307692,43211
6.844230769230769,45362
6.846153846153846,50612
6.848076923076923,55711
6.85,50214
6.851923076923077,30386
6.8538461538461535,16372
6.855769230769231,20584
6.857692307692307,30206
6.859615384615385,36343
6.861538461538461,41965
6.8634615384615385,48777
6.865384615384615,54401
6.867307692307692,53631
6.869230769230769,46327
6.871153846153846,41676
6.873076923076923,45406
6.875,54590
6.876923076923077,58751
6.878846153846154,45449
6.880769230769231,22876
6.882692307692308,18338
6.884615384615385,32251
6.8865384615384615,38736
6.888461538461539,39857
6.890384615384615,55810
6.892307692307693,83920
6.894230769230769,115559
6.8961538461538465,151516
6.898076923076923,187087
6.9,220360
6.901923076923077,264924
6.903846153846154,328584
6.905769230769231,399070
6.907692307692308,461332
6.9096153846153845,507353
6.911538461538462,534505
6.913461538461538,538800
6.915384615384616,507111
6.917307692307692,433703
6.9192307692307695,334622
6.921153846153846,229894
6.923076923076923,127443
6.925,24497
6.926923076923077,-81574
6.928846153846154,-174880
6.930769230769231,-235095
6.9326923076923075,-262414
6.934615384615385,-261068
6.936538461538461,-229950
6.938461538461539,-181135
6.940384615384615,-134262
6.9423076923076925,-90768
6.944230769230769,-45375
6.946153846153846,-14181
6.948076923076923,-11285
6.95,-17609
6.951923076923077,-12455
6.953846153846154,-3740
6.9557692307692305,-4494
6.957692307692308,-9696
6.959615384615384,-9888
6.961538461538462,-7014
6.963461538461538,-6689
6.9653846153846155,-7778
6.967307692307692,-3432
6.969230769230769,5093
6.971153846153846,6834
6.973076923076923,-714
6.975,-9645
6.976923076923077,-14543
6.9788461538461535,-11613
6.980769230769231,123
6.982692307692307,16158
6.984615384615385,30366
6.986538461538461,32839
6.9884615384615385,21379
6.990384615384615,8272
6.992307692307692,6
6.994230769230769,-8425
6.996153846153846,-15537
6.998076923076923,-18158
7.0,-19745
7.001923076923077,-17470
7.003846153846154,-3626
7.005769230769231,15877
7.007692307692308,24429
7.009615384615385,23181
7.0115384615384615,23582
7.013461538461539,26032
7.015384615384615,27773
7.017307692307693,28013
7.019230769230769,26423
7.0211538461538465,23049
7.023076923076923,19377
7.025,16934
7.026923076923077,18520
7.028846153846154,21896
7.030769230769231,22098
7.032692307692308,28826
7.0346153846153845,44685
7.036538461538462,50007
7.038461538461538,39053
7.040384615384616,28063
7.042307692307692,21964
7.0442307692307695,18396
7.046153846153846,24435
7.048076923076923,39206
7.05,50473
7.051923076923077,50894
7.053846153846154,46052
7.055769230769231,41712
7.0576923076923075,33444
7.059615384615385,27083
7.061538461538461,36471
7.063461538461539,51591
7.065384615384615,54654
7.0673076923076925,54957
7.069230769230769,64960
7.071153846153846,72054
7.073076923076923,69193
7.075,66746
7.076923076923077,67051
7.078846153846154,66956
7.0807692307692305,64604
7.082692307692308,62101
7.084615384615384,63015
7.086538461538462,67890
7.088461538461538,74595
7.0903846153846155,79988
7.092307692307692,84387
7.094230769230769,92470
7.096153846153846,103758
7.098076923076923,110635
7.1,118171
7.101923076923077,126162
7.1038461538461535,124981
7.105769230769231,113139
7.107692307692307,95285
7.109615384615385,91625
7.111538461538461,110708
7.1134615384615385,135137
7.115384615384615,150171
7.117307692307692,151342
7.119230769230769,148899
7.121153846153846,155737
7.123076923076923,168426
7.125,182225
7.126923076923077,194648
7.128846153846154,199650
7.130769230769231,198812
7.132692307692308,197222
7.134615384615385,193706
7.1365384615384615,186291
7.138461538461539,172972
7.140384615384615,155073
7.142307692307693,145114
7.144230769230769,152246
7.1461538461538465,172324
7.148076923076923,188975
7.15,186845
7.151923076923077,180259
7.153846153846154,187694
7.155769230769231,195902
7.157692307692308,190685
7.1596153846153845,179619
7.161538461538462,174478
7.163461538461538,178270
7.165384615384616,178592
7.167307692307692,163564
7.1692307692307695,146154
7.171153846153846,139607
7.173076923076923,131079
7.175,109583
7.176923076923077,89978
7.178846153846154,89553
7.180769230769231,97852
7.1826923076923075,90237
7.184615384615385,64951
7.186538461538461,38387
7.188461538461539,15873
7.190384615384615,-3984
7.1923076923076925,-15101
7.194230769230769,-16952
7.196153846153846,-19300
7.198076923076923,-26540
7.2,-42239
7.201923076923077,-71969
7.203846153846154,-107283
7.2057692307692305,-131112
7.207692307692308,-136884
7.209615384615384,-130230
7.211538461538462,-117439
7.213461538461538,-108172
7.2153846153846155,-114524
7.217307692307692,-130985
7.219230769230769,-143137
7.221153846153846,-149640
7.223076923076923,-157072
7.225,-164124
7.226923076923077,-164550
7.2288461538461535,-169179
7.230769230769231,-187546
7.232692307692307,-198911
7.234615384615385,-190691
7.236538461538461,-182342
7.2384615384615385,-184995
7.240384615384615,-185647
7.242307692307692,-179102
7.244230769230769,-179685
7.246153846153846,-188245
7.248076923076923,-186764
7.25,-178521
7.251923076923077,-181952
7.253846153846154,-187702
7.255769230769231,-176514
7.257692307692308,-160744
7.259615384615385,-157139
7.2615384615384615,-155016
7.263461538461539,-145425
7.265384615384615,-138105
7.267307692307693,-138317
7.269230769230769,-146609
7.2711538461538465,-163831
7.273076923076923,-177430
7.275,-176544
7.276923076923077,-168396
7.278846153846154,-161947
7.280769230769231,-154038
7.282692307692308,-146247
7.2846153846153845,-146703
7.286538461538462,-150469
7.288461538461538,-150996
7.290384615384616,-146203
7.292307692307692,-138450
7.2942307692307695,-135761
7.296153846153846,-136671
7.298076923076923,-136543
7.3,-134764
7.301923076923077,-131992
7.303846153846154,-130270
7.305769230769231,-126934
7.3076923076923075,-121540
7.309615384615385,-119073
7.311538461538461,-119507
7.313461538461539,-116162
7.315384615384615,-113117
7.3173076923076925,-120312
7.319230769230769,-127459
7.321153846153846,-128304
7.323076923076923,-130607
7.325,-130872
7.326923076923077,-123238
7.328846153846154,-110857
7.3307692307692305,-100372
7.332692307692308,-94830
7.334615384615384,-92414
7.336538461538462,-92385
7.338461538461538,-92700
7.3403846153846155,-83743
7.342307692307692,-69793
7.344230769230769,-68971
7.346153846153846,-74178
7.348076923076923,-77921
7.35,-91589
7.351923076923077,-107491
7.3538461538461535,-109621
7.355769230769231,-103049
7.357692307692307,-99437
7.359615384615385,-98226
7.361538461538461,-100538
7.3634615384615385,-102896
7.365384615384615,-96222
7.367307692307692,-93521
7.369230769230769,-103159
7.371153846153846,-111094
7.373076923076923,-109102
7.375,-100298
7.376923076923077,-90159
7.378846153846154,-83684
7.380769230769231,-83880
7.382692307692308,-85375
7.384615384615385,-80325
7.3865384615384615,-72462
7.388461538461539,-64809
7.390384615384615,-56237
7.392307692307693,-56972
7.394230769230769,-73005
7.3961538461538465,-87469
7.398076923076923,-87330
7.4,-84864
7.401923076923077,-85813
7.403846153846154,-80613
7.405769230769231,-73293
7.407692307692308,-69902
7.4096153846153845,-66196
7.411538461538462,-57334
7.413461538461538,-49454
7.415384615384616,-56733
7.417307692307692,-70742
7.4192307692307695,-74531
7.421153846153846,-72605
7.423076923076923,-72265
7.425,-69622
7.426923076923077,-67485
7.428846153846154,-73448
7.430769230769231,-83171
7.4326923076923075,-87164
7.434615384615385,-80378
7.436538461538461,-69142
7.438461538461539,-57318
7.440384615384615,-42916
7.4423076923076925,-40044
7.444230769230769,-53231
7.446153846153846,-68239
7.448076923076923,-80570
7.45,-85218
7.451923076923077,-77222
7.453846153846154,-68039
7.4557692307692305,-68337
7.457692307692308,-73391
7.459615384615384,-75417
7.461538461538462,-73226
7.463461538461538,-71519
7.4653846153846155,-72406
7.467307692307692,-67264
7.469230769230769,-48358
7.471153846153846,-24680
7.473076923076923,-17318
7.475,-34357
7.476923076923077,-56797
7.4788461538461535,-60919
7.480769230769231,-47162
7.482692307692307,-38101
7.484615384615385,-45594
7.486538461538461,-58194
7.4884615384615385,-61375
7.490384615384615,-53018
7.492307692307692,-47730
7.494230769230769,-51348
7.496153846153846,-52285
7.498076923076923,-49153
7.5,-48946
7.501923076923077,-57197
7.503846153846154,-65959
7.505769230769231,-53599
7.507692307692308,-25557
7.509615384615385,-12092
7.5115384615384615,-24316
7.513461538461539,-43211
7.515384615384615,-49269
7.517307692307693,-46429
7.519230769230769,-41324
7.5211538461538465,-34814
7.523076923076923,-31925
7.525,-32106
7.526923076923077,-34020
7.528846153846154,-43228
7.530769230769231,-54344
7.532692307692308,-57024
7.5346153846153845,-52412
7.536538461538462,-48530
7.538461538461538,-51942
7.540384615384616,-50726
7.542307692307692,-34858
7.5442307692307695,-22083
7.546153846153846,-26702
7.548076923076923,-39491
7.55,-42227
7.551923076923077,-35187
7.553846153846154,-34154
7.555769230769231,-38068
7.5576923076923075,-38170
7.559615384615385,-39364
7.561538461538461,-46215
7.563461538461539,-50392
7.565384615384615,-46919
7.5673076923076925,-42702
7.569230769230769,-43090
7.571153846153846,-39260
7.573076923076923,-19815
7.575,6723
7.576923076923077,15532
7.578846153846154,-1915
7.5807692307692305,-24327
7.582692307692308,-28965
7.584615384615384,-14799
7.586538461538462,-5404
7.588461538461538,-10980
7.5903846153846155,-9586
7.592307692307692,5536
7.594230769230769,15993
7.596153846153846,14168
7.598076923076923,7978
7.6,351
7.601923076923077,-1707
7.6038461538461535,14133
7.605769230769231,36824
7.607692307692307,44742
7.609615384615385,39881
7.611538461538461,37218
7.6134615384615385,41945
7.615384615384615,54396
7.617307692307692,75378
7.619230769230769,94991
7.621153846153846,99661
7.623076923076923,93708
7.625,88659
7.626923076923077,83185
7.628846153846154,74944
7.630769230769231,70191
7.632692307692308,71466
7.634615384615385,72323
7.6365384615384615,67003
7.638461538461539,54127
7.640384615384615,35131
7.642307692307693,22445
7.644230769230769,21498
7.6461538461538465,15925
7.648076923076923,-940
7.65,-13998
7.651923076923077,-18263
7.653846153846154,-23162
7.655769230769231,-25763
7.657692307692308,-15495
7.6596153846153845,3073
7.661538461538462,9843
7.663461538461538,-3147
7.665384615384616,-20255
7.667307692307692,-23545
7.6692307692307695,-11118
7.671153846153846,-2995
7.673076923076923,-12947
7.675,-26188
7.676923076923077,-32080
7.678846153846154,-33116
7.680769230769231,-27275
7.6826923076923075,-15455
7.684615384615385,-2546
7.686538461538461,7707
7.688461538461539,10765
7.690384615384615,3945
7.6923076923076925,-10286
7.694230769230769,-22389
7.696153846153846,-21152
7.698076923076923,-13583
7.7,-16553
7.701923076923077,-24668
7.703846153846154,-20829
7.7057692307692305,-3401
7.707692307692308,25012
7.709615384615384,59679
7.711538461538462,83064
7.713461538461538,98579
7.7153846153846155,133318
7.717307692307692,188520
7.719230769230769,243872
7.721153846153846,303109
7.723076923076923,375999
7.725,434935
7.726923076923077,459508
7.7288461538461535,468878
7.730769230769231,467088
7.732692307692307,436470
7.734615384615385,378857
7.736538461538461,307596
7.7384615384615385,223436
7.740384615384615,119517
7.742307692307692,-108
7.744230769230769,-113872
7.746153846153846,-198107
7.748076923076923,-246031
7.75,-264907
7.751923076923077,-259134
7.753846153846154,-233492
7.755769230769231,-200401
7.757692307692308,-169762
7.759615384615385,-143717
7.7615384615384615,-121492
7.763461538461539,-102284
7.765384615384615,-80763
7.767307692307693,-59093
7.769230769230769,-52183
7.7711538461538465,-55787
7.773076923076923,-49060
7.775,-28596
7.776923076923077,-5138
7.778846153846154,7449
7.780769230769231,-415
7.782692307692308,-10318
7.7846153846153845,1210
7.786538461538462,19877
7.788461538461538,22310
7.790384615384616,12810
7.792307692307692,6204
7.7942307692307695,3410
7.796153846153846,-940
7.798076923076923,-2192
7.8,6467
7.801923076923077,20330
7.803846153846154,27827
7.805769230769231,27835
7.8076923076923075,26801
7.809615384615385,24937
7.811538461538461,23352
7.813461538461539,20172
7.815384615384615,13596
7.8173076923076925,16538
7.819230769230769,34876
7.821153846153846,51816
7.823076923076923,53650
7.825,47805
7.826923076923077,46545
7.828846153846154,52992
7.8307692307692305,59060
7.832692307692308,52526
7.834615384615384,39529
7.836538461538462,36040
7.838461538461538,44400
7.8403846153846155,54028
7.842307692307692,56576
7.844230769230769,58794
7.846153846153846,62626
7.848076923076923,60609
7.85,58183
7.851923076923077,67103
7.8538461538461535,80981
7.855769230769231,78549
7.857692307692307,58803
7.859615384615385,45956
7.861538461538461,53709
7.8634615384615385,71832
7.865384615384615,85227
7.867307692307692,87031
7.869230769230769,79063
7.871153846153846,65926
7.873076923076923,56743
7.875,61496
7.876923076923077,74362
7.878846153846154,85800
7.880769230769231,90298
7.882692307692308,77694
7.884615384615385,53373
7.8865384615384615,49603
7.888461538461539,82679
7.890384615384615,118083
7.892307692307693,122714
7.894230769230769,114920
7.8961538461538465,117548
7.898076923076923,123773
7.9,127195
7.901923076923077,133046
7.903846153846154,141557
7.905769230769231,141002
7.907692307692308,125964
7.9096153846153845,111467
7.911538461538462,111734
7.913461538461538,118982
7.915384615384616,121644
7.917307692307692,123884
7.9192307692307695,129743
7.921153846153846,133829
7.923076923076923,137085
7.925,150319
7.926923076923077,171108
7.928846153846154,181476
7.930769230769231,180144
7.9326923076923075,180724
7.934615384615385,186501
7.936538461538461,191927
7.938461538461539,189433
7.940384615384615,182196
7.9423076923076925,182386
7.944230769230769,186920
7.946153846153846,189637
7.948076923076923,194201
7.95,202995
7.951923076923077,216880
7.953846153846154,226756
7.9557692307692305,220689
7.957692307692308,211202
7.959615384615384,215713
7.961538461538462,224724
7.963461538461538,224079
7.9653846153846155,215137
7.967307692307692,204437
7.969230769230769,200243
7.971153846153846,206834
7.973076923076923,213263
7.975,209755
7.976923076923077,206218
7.9788461538461535,209111
7.980769230769231,209725
7.982692307692307,204031
7.984615384615385,193256
7.986538461538461,184489
7.9884615384615385,186397
7.990384615384615,183687
7.992307692307692,159056
7.994230769230769,128204
7.996153846153846,116053
7.998076923076923,121335
8.0,123854
8.001923076923077,113575
8.003846153846155,92036
8.00576923076923,67115
8.007692307692308,50287
8.009615384615385,42535
8.011538461538462,37043
8.013461538461538,27382
8.015384615384615,11603
8.017307692307693,-9962
8.01923076923077,-36058
8.021153846153846,-58433
8.023076923076923,-72046
8.025,-77404
8.026923076923078,-78449
8.028846153846153,-85866
8.03076923076923,-104078
8.032692307692308,-122648
8.034615384615385,-129308
8.036538461538461,-122150
8.038461538461538,-111536
8.040384615384616,-112219
8.042307692307693,-121505
8.044230769230769,-125337
8.046153846153846,-124063
8.048076923076923,-125277
8.05,-133325
8.051923076923076,-147722
8.053846153846154,-152482
8.055769230769231,-136614
8.057692307692308,-118197
8.059615384615384,-118066
8.061538461538461,-129864
8.063461538461539,-126464
8.065384615384616,-104191
8.067307692307692,-94366
8.069230769230769,-107477
8.071153846153846,-122618
8.073076923076924,-127760
8.075,-123856
8.076923076923077,-114241
8.078846153846154,-108023
8.080769230769231,-111966
8.082692307692307,-121033
8.084615384615384,-125282
8.086538461538462,-114925
8.088461538461539,-92374
8.090384615384615,-75212
8.092307692307692,-71224
8.09423076923077,-76393
8.096153846153847,-89846
8.098076923076922,-103351
8.1,-104107
8.101923076923077,-95706
8.103846153846154,-91368
8.10576923076923,-94978
8.107692307692307,-96711
8.109615384615385,-88677
8.111538461538462,-76798
8.113461538461538,-72153
8.115384615384615,-79144
8.117307692307692,-86637
8.11923076923077,-85458
8.121153846153845,-84871
8.123076923076923,-88681
8.125,-87803
8.126923076923077,-80994
8.128846153846155,-76075
8.13076923076923,-73191
8.132692307692308,-68560
8.134615384615385,-66380
8.136538461538462,-59436
8.138461538461538,-44264
8.140384615384615,-46289
8.142307692307693,-65988
8.14423076923077,-74221
8.146153846153846,-69168
8.148076923076923,-65674
8.15,-65485
8.151923076923078,-59053
8.153846153846153,-50451
8.15576923076923,-54662
8.157692307692308,-56349
8.159615384615385,-39194
8.161538461538461,-22168
8.163461538461538,-12514
8.165384615384616,-5033
8.167307692307693,-12228
8.169230769230769,-32844
8.171153846153846,-47539
8.173076923076923,-54083
8.175,-61083
8.176923076923076,-62729
8.178846153846154,-52815
8.180769230769231,-45119
8.182692307692308,-56042
8.184615384615384,-78551
8.186538461538461,-90022
8.188461538461539,-83713
8.190384615384616,-70460
8.192307692307692,-57965
8.194230769230769,-49735
8.196153846153846,-48615
8.198076923076924,-49658
8.2,-45762
8.201923076923077,-41340
8.203846153846154,-41069
8.205769230769231,-42924
8.207692307692307,-43681
8.209615384615384,-39871
8.211538461538462,-32229
8.213461538461539,-30958
8.215384615384615,-47117
8.217307692307692,-71150
8.21923076923077,-80815
8.221153846153847,-68459
8.223076923076922,-47424
8.225,-32551
8.226923076923077,-30719
8.228846153846154,-41174
8.23076923076923,-53705
8.232692307692307,-58177
8.234615384615385,-57346
8.236538461538462,-57473
8.238461538461538,-50694
8.240384615384615,-42690
8.242307692307692,-55433
8.24423076923077,-77031
8.246153846153845,-75820
8.248076923076923,-54268
8.25,-33987
8.251923076923077,-25505
8.253846153846155,-32451
8.25576923076923,-46311
8.257692307692308,-51830
8.259615384615385,-50649
8.261538461538462,-51214
8.263461538461538,-51558
8.265384615384615,-53882
8.267307692307693,-63392
8.26923076923077,-77606
8.271153846153846,-87954
8.273076923076923,-79144
8.275,-54357
8.276923076923078,-42723
8.278846153846153,-46701
8.28076923076923,-45769
8.282692307692308,-50465
8.284615384615385,-70855
8.286538461538461,-79458
8.288461538461538,-62177
8.290384615384616,-44097
8.292307692307693,-40629
8.294230769230769,-48891
8.296153846153846,-62301
8.298076923076923,-63278
8.3,-50336
8.301923076923076,-36734
8.303846153846154,-36208
8.305769230769231,-60712
8.307692307692308,-89331
8.309615384615384,-91332
8.311538461538461,-72078
8.313461538461539,-54777
8.315384615384616,-51626
8.317307692307692,-59723
8.319230769230769,-67556
8.321153846153846,-68384
8.323076923076924,-60764
8.325,-46545
8.326923076923077,-37379
8.328846153846154,-44606
8.330769230769231,-57411
8.332692307692307,-58291
8.334615384615384,-58195
8.336538461538462,-66196
8.338461538461539,-68637
8.340384615384615,-65288
8.342307692307692,-59417
8.34423076923077,-42314
8.346153846153847,-18515
8.348076923076922,-7697
8.35,-16563
8.351923076923077,-25155
8.353846153846154,-23132
8.35576923076923,-27905
8.357692307692307,-40877
8.359615384615385,-42729
8.361538461538462,-31001
8.363461538461538,-18328
8.365384615384615,-13280
8.367307692307692,-18773
8.36923076923077,-31080
8.371153846153845,-39274
8.373076923076923,-36518
8.375,-22410
8.376923076923077,7143
8.378846153846155,43363
8.38076923076923,62546
8.382692307692308,59108
8.384615384615385,45237
8.386538461538462,33009
8.388461538461538,21023
8.390384615384615,8051
8.392307692307693,12755
8.39423076923077,33619
8.396153846153846,41312
8.398076923076923,25088
8.4,2708
8.401923076923078,-2126
8.403846153846153,10642
8.40576923076923,20069
8.407692307692308,25958
8.409615384615385,38008
8.411538461538461,38449
8.413461538461538,13067
8.415384615384616,-23109
8.417307692307693,-45954
8.419230769230769,-46436
8.421153846153846,-41301
8.423076923076923,-48859
8.425,-61665
8.426923076923076,-62957
8.428846153846154,-50515
8.430769230769231,-32924
8.432692307692308,-22050
8.434615384615384,-27495
8.436538461538461,-45288
8.438461538461539,-61229
8.440384615384616,-68274
8.442307692307692,-62613
8.444230769230769,-45633
8.446153846153846,-37187
8.448076923076924,-46632
8.45,-52155
8.451923076923077,-41001
8.453846153846154,-29339
8.455769230769231,-28845
8.457692307692307,-33873
8.459615384615384,-39242
8.461538461538462,-40791
8.463461538461539,-33373
8.465384615384615,-19920
8.467307692307692,-11702
8.46923076923077,-15534
8.471153846153847,-23226
8.473076923076922,-24493
8.475,-18498
8.476923076923077,-5701
8.478846153846154,14211
8.48076923076923,40952
8.482692307692307,74586
8.484615384615385,110045
8.486538461538462,148792
8.488461538461538,201982
8.490384615384615,272130
8.492307692307692,343574
8.49423076923077,392365
8.496153846153845,413732
8.498076923076923,419422
8.5,406060
8.501923076923077,362490
8.503846153846155,292814
8.50576923076923,206775
8.507692307692308,112345
8.509615384615385,16115
8.511538461538462,-75618
8.513461538461538,-154374
8.515384615384615,-212849
8.517307692307693,-246742
8.51923076923077,-257980
8.521153846153846,-256100
8.523076923076923,-245280
8.525,-221988
8.526923076923078,-193554
8.528846153846153,-172626
8.53076923076923,-155729
8.532692307692308,-133027
8.534615384615385,-105439
8.536538461538461,-78331
8.538461538461538,-61093
8.540384615384616,-64150
8.542307692307693,-82570
8.544230769230769,-95361
8.546153846153846,-80176
8.548076923076923,-44207
8.55,-22140
8.551923076923076,-22286
8.553846153846154,-32875
8.555769230769231,-54627
8.557692307692308,-76624
8.559615384615384,-82778
8.561538461538461,-75759
8.563461538461539,-64677
8.565384615384616,-56344
8.567307692307692,-54134
8.569230769230769,-51401
8.571153846153846,-40086
8.573076923076924,-30671
8.575,-35039
8.576923076923077,-38205
8.578846153846154,-23756
8.580769230769231,-9562
8.582692307692307,-11360
8.584615384615384,-13428
8.586538461538462,-13169
8.588461538461539,-24478
8.590384615384615,-35481
8.592307692307692,-31136
8.59423076923077,-22573
8.596153846153847,-17834
8.598076923076922,-11145
8.6,-2160
8.601923076923077,-1711
8.603846153846154,-15536
8.60576923076923,-29318
8.607692307692307,-27504
8.609615384615385,-12899
8.611538461538462,1715
8.613461538461538,9555
8.615384615384615,11290
8.617307692307692,5159
8.61923076923077,-4424
8.621153846153845,-6302
8.623076923076923,-3434
8.625,-5948
8.626923076923077,-10793
8.628846153846155,-7415
8.63076923076923,4196
8.632692307692308,12855
8.634615384615385,11803
8.636538461538462,8058
8.638461538461538,16004
8.640384615384615,34568
8.642307692307693,46059
8.64423076923077,45366
8.646153846153846,40040
8.648076923076923,34403
8.65,31080
8.651923076923078,34864
8.653846153846153,46757
8.65576923076923,57300
8.657692307692308,57219
8.659615384615385,50918
8.661538461538461,49680
8.663461538461538,58146
8.665384615384616,71899
8.667307692307693,83414
8.669230769230769,86308
8.671153846153846,80806
8.673076923076923,80402
8.675,93228
8.676923076923076,112737
8.678846153846154,130709
8.680769230769231,137326
8.682692307692308,127275
8.684615384615384,108389
8.686538461538461,99240
8.688461538461539,105863
8.690384615384616,116185
8.692307692307692,127484
8.694230769230769,136204
8.696153846153846,135905
8.698076923076924,137185
8.7,146147
8.701923076923077,153214
8.703846153846154,160930
8.705769230769231,179248
8.707692307692307,196955
8.709615384615384,198073
8.711538461538462,187893
8.713461538461539,178585
8.715384615384615,175140
8.717307692307692,182577
8.71923076923077,200571
8.721153846153847,216214
8.723076923076922,220378
8.725,221176
8.726923076923077,222181
8.728846153846154,218042
8.73076923076923,214952
8.732692307692307,217218
8.734615384615385,218523
8.736538461538462,216278
8.738461538461538,213513
8.740384615384615,211564
8.742307692307692,212231
8.74423076923077,221586
8.746153846153845,234230
8.748076923076923,233114
8.75,215726
8.751923076923077,194608
8.753846153846155,184609
8.75576923076923,192140
8.757692307692308,202947
8.759615384615385,195235
8.761538461538462,162996
8.763461538461538,126036
8.765384615384615,110303
8.767307692307693,113350
8.76923076923077,114794
8.771153846153846,106467
8.773076923076923,91692
8.775,76730
8.776923076923078,65115
8.778846153846153,50986
8.78076923076923,29468
8.782692307692308,9667
8.784615384615385,-2899
8.786538461538461,-9186
8.788461538461538,-9262
8.790384615384616,-13567
8.792307692307693,-28582
8.794230769230769,-50817
8.796153846153846,-75293
8.798076923076923,-92040
8.8,-88948
8.801923076923076,-66363
8.803846153846154,-49596
8.805769230769231,-59423
8.807692307692308,-81223
8.809615384615384,-89880
8.811538461538461,-83095
8.813461538461539,-71367
8.815384615384616,-61659
8.817307692307692,-65558
8.819230769230769,-82359
8.821153846153846,-94745
8.823076923076924,-102349
8.825,-115115
8.826923076923077,-124173
8.828846153846154,-120081
8.830769230769231,-115436
8.832692307692307,-114847
8.834615384615384,-111637
8.836538461538462,-108256
8.838461538461539,-100534
8.840384615384615,-86612
8.842307692307692,-78941
8.84423076923077,-78755
8.846153846153847,-79553
8.848076923076922,-87069
8.85,-105677
8.851923076923077,-123601
8.853846153846154,-117796
8.85576923076923,-83771
8.857692307692307,-53378
8.859615384615385,-46930
8.861538461538462,-49066
8.863461538461538,-49841
8.865384615384615,-47883
8.867307692307692,-35450
8.86923076923077,-17054
8.871153846153845,-12501
8.873076923076923,-30092
8.875,-54953
8.876923076923077,-73084
8.878846153846155,-78366
8.88076923076923,-68292
8.882692307692308,-52241
8.884615384615385,-38020
8.886538461538462,-27133
8.888461538461538,-19091
8.890384615384615,-11311
8.892307692307693,-7801
8.89423076923077,-12671
8.896153846153846,-24650
8.898076923076923,-37335
8.9,-41381
8.901923076923078,-37076
8.903846153846153,-35776
8.90576923076923,-43213
8.907692307692308,-49486
8.909615384615385,-41846
8.911538461538461,-22374
8.913461538461538,-8905
8.915384615384616,-14005
8.917307692307693,-33979
8.919230769230769,-45923
8.921153846153846,-34024
8.923076923076923,-17120
8.925,-14366
8.926923076923076,-27720
8.928846153846154,-44071
8.930769230769231,-45949
8.932692307692308,-35047
8.934615384615384,-17340
8.936538461538461,2326
8.938461538461539,11490
8.940384615384616,7448
8.942307692307692,-477
8.944230769230769,-6431
8.946153846153846,-8321
8.948076923076924,-2540
8.95,7848
8.951923076923077,14016
8.953846153846154,13386
8.955769230769231,5498
8.957692307692307,-5615
8.959615384615384,-9229
8.961538461538462,-7899
8.963461538461539,-11973
8.965384615384615,-15463
8.967307692307692,-11146
8.96923076923077,-4300
8.971153846153847,-6787
8.973076923076922,-24100
8.975,-35026
8.976923076923077,-22126
8.978846153846154,-3929
8.98076923076923,-460
8.982692307692307,-5285
8.984615384615385,-6892
8.986538461538462,-5769
8.988461538461538,-4666
8.990384615384615,-3161
8.992307692307692,-732
8.99423076923077,-1123
8.996153846153845,-9233
8.998076923076923,-14161
9.0,-6586
9.001923076923077,2802
9.003846153846155,8162
9.00576923076923,5924
9.007692307692308,-1425
9.009615384615385,676
9.011538461538462,8956
9.013461538461538,11968
9.015384615384615,13420
9.017307692307693,13221
9.01923076923077,8902
9.021153846153846,7984
9.023076923076923,9092
9.025,11768
9.026923076923078,21614
9.028846153846153,28026
9.03076923076923,20283
9.032692307692308,9443
9.034615384615385,4907
9.036538461538461,-694
9.038461538461538,-8768
9.040384615384616,-15544
9.042307692307693,-25148
9.044230769230769,-33084
9.046153846153846,-26459
9.048076923076923,-15121
9.05,-16152
9.051923076923076,-18074
9.053846153846154,-7615
9.055769230769231,3984
9.057692307692308,8907
9.059615384615384,10344
9.061538461538461,4659
9.063461538461539,-8517
9.065384615384616,-22385
9.067307692307692,-26725
9.069230769230769,-17484
9.071153846153846,-5041
9.073076923076924,-2759
9.075,-12793
9.076923076923077,-21242
9.078846153846154,-19246
9.080769230769231,-13047
9.082692307692307,-12220
9.084615384615384,-14770
9.086538461538462,-7817
9.088461538461539,-1900
9.090384615384615,-15204
9.092307692307692,-30242
9.09423076923077,-27425
9.096153846153847,-12816
9.098076923076922,1728
9.1,9195
9.101923076923077,9454
9.103846153846154,3072
9.10576923076923,-11454
9.107692307692307,-26746
9.109615384615385,-32534
9.111538461538462,-31139
9.113461538461538,-27310
9.115384615384615,-23338
9.117307692307692,-26265
9.11923076923077,-33174
9.121153846153845,-31238
9.123076923076923,-22764
9.125,-16307
9.126923076923077,-3826
9.128846153846155,11634
9.13076923076923,10564
9.132692307692308,672
9.134615384615385,-783
9.136538461538462,429
9.138461538461538,-1289
9.140384615384615,255
9.142307692307693,3175
9.14423076923077,-190
9.146153846153846,-4087
9.148076923076923,2365
9.15,17294
9.151923076923078,32577
9.153846153846153,41484
9.15576923076923,41210
9.157692307692308,46044
9.159615384615385,64879
9.161538461538461,73074
9.163461538461538,60001
9.165384615384616,52882
9.167307692307693,58534
9.169230769230769,55083
9.171153846153846,41191
9.173076923076923,37439
9.175,43799
9.176923076923076,45060
9.178846153846154,43281
9.180769230769231,41821
9.182692307692308,34263
9.184615384615384,24631
9.186538461538461,23344
9.188461538461539,24888
9.190384615384616,15510
9.192307692307692,-3532
9.194230769230769,-17449
9.196153846153846,-22616
9.198076923076924,-27653
9.2,-31678
9.201923076923077,-30536
9.203846153846154,-27776
9.205769230769231,-25341
9.207692307692307,-23714
9.209615384615384,-29921
9.211538461538462,-45633
9.213461538461539,-60299
9.215384615384615,-69218
9.217307692307692,-78131
9.21923076923077,-80680
9.221153846153847,-61969
9.223076923076922,-32399
9.225,-18601
9.226923076923077,-26561
9.228846153846154,-39618
9.23076923076923,-40125
9.232692307692307,-28001
9.234615384615385,-20602
9.236538461538462,-27166
9.238461538461538,-43517
9.240384615384615,-66344
9.242307692307692,-86966
9.24423076923077,-92140
9.246153846153845,-80393
9.248076923076923,-60920
9.25,-44284
9.251923076923077,-38741
9.253846153846155,-44966
9.25576923076923,-39542
9.257692307692308,1315
9.259615384615385,54531
9.261538461538462,86561
9.263461538461538,104075
9.265384615384615,138674
9.267307692307693,205541
9.26923076923077,294866
9.271153846153846,381941
9.273076923076923,434472
9.275,446799
9.276923076923078,436340
9.278846153846153,405047
9.28076923076923,348325
9.282692307692308,272585
9.284615384615385,180572
9.286538461538461,68962
9.288461538461538,-50468
9.290384615384616,-153221
9.292307692307693,-228309
9.294230769230769,-281483
9.296153846153846,-313429
9.298076923076923,-322950
9.3,-319293
9.301923076923076,-300889
9.303846153846154,-261239
9.305769230769231,-217025
9.307692307692308,-185403
9.309615384615384,-161350
9.311538461538461,-141671
9.313461538461539,-132442
9.315384615384616,-124472
9.317307692307692,-108608
9.319230769230769,-95503
9.321153846153846,-91795
9.323076923076924,-91729
9.325,-87792
9.326923076923077,-79660
9.328846153846154,-76897
9.330769230769231,-81911
9.332692307692307,-85316
9.334615384615384,-85587
9.336538461538462,-86341
9.338461538461539,-83612
9.340384615384615,-73447
9.342307692307692,-61749
9.34423076923077,-64796
9.346153846153847,-85208
9.348076923076922,-102463
9.35,-103073
9.351923076923077,-85331
9.353846153846154,-57720
9.35576923076923,-43669
9.357692307692307,-50819
9.359615384615385,-63351
9.361538461538462,-70911
9.363461538461538,-70484
9.365384615384615,-58486
9.367307692307692,-43180
9.36923076923077,-41331
9.371153846153845,-51302
9.373076923076923,-54764
9.375,-47701
9.376923076923077,-44308
9.378846153846155,-47185
9.38076923076923,-46078
9.382692307692308,-42611
9.384615384615385,-38724
9.386538461538462,-30288
9.388461538461538,-24142
9.390384615384615,-25553
9.392307692307693,-28389
9.39423076923077,-29970
9.396153846153846,-33354
9.398076923076923,-39318
9.4,-42133
9.401923076923078,-33911
9.403846153846153,-13728
9.40576923076923,7448
9.407692307692308,11061
9.409615384615385,-5594
9.411538461538461,-19502
9.413461538461538,-15865
9.415384615384616,-4046
9.417307692307693,893
9.419230769230769,-9123
9.421153846153846,-25366
9.423076923076923,-27759
9.425,-11724
9.426923076923076,1125
9.428846153846154,-120
9.430769230769231,-3046
9.432692307692308,-1692
9.434615384615384,5478
9.436538461538461,17813
9.438461538461539,24991
9.440384615384616,18548
9.442307692307692,5063
9.444230769230769,-2676
9.446153846153846,-8121
9.448076923076924,-14889
9.45,-6622
9.451923076923077,17767
9.453846153846154,37039
9.455769230769231,51495
9.457692307692307,69964
9.459615384615384,79636
9.461538461538462,71946
9.463461538461539,62510
9.465384615384615,71017
9.467307692307692,89280
9.46923076923077,92120
9.471153846153847,78331
9.473076923076922,63730
9.475,56129
9.476923076923077,58745
9.478846153846154,70844
9.48076923076923,81953
9.482692307692307,84006
9.484615384615385,81942
9.486538461538462,84418
9.488461538461538,97436
9.490384615384615,120358
9.492307692307692,141208
9.49423076923077,147715
9.496153846153845,143320
9.498076923076923,139381
9.5,143737
9.501923076923077,158462
9.503846153846155,169961
9.50576923076923,164475
9.507692307692308,152362
9.509615384615385,150051
9.511538461538462,153050
9.513461538461538,150478
9.515384615384615,145293
9.517307692307693,141748
9.51923076923077,143373
9.521153846153846,155201
9.523076923076923,166535
9.525,165127
9.526923076923078,159052
9.528846153846153,159542
9.53076923076923,163710
9.532692307692308,158050
9.534615384615385,133116
9.536538461538461,99461
9.538461538461538,84601
9.540384615384616,94326
9.542307692307693,98260
9.544230769230769,80952
9.546153846153846,56758
9.548076923076923,36717
9.55,28053
9.551923076923076,32796
9.553846153846154,39887
9.555769230769231,41304
