0
0
0
0
0
0
0
0
0
0
0
0
0
0
0
0
0
0
0
0
0
0
0
0
0
0
0
0
0
0
0
0
0
0
0
0
0
0
0
0
0
0
0
0
0
0
0
0
0
0
0
0
0
0
0
0
0
0
0
0
0
0
0
0
0
0
0
0
0
0
0
0
0
0
0
0
0
0
0
0
0
0
0
0
0
0
0
0
0
0
0
0
0
0
0
0
0
0
0
0
0
0
0
0
0
0
0
0
0
0
0
0
0
0
0
0
0
0
0
0
0
0
0
0
0
0
0
0
0
0
0
0
0
0
0
0
0
0
0
0
0
0
0
0
0
0
0
0
0
0
0
0
0
0
0
0
0
0
0
0
0
0
0
0
0
0
0
0
0
0
0
0
0
0
0
0
0
0
0
0
0
0
0
0
0
0
0
0
0
0
0
0
0
0
0
0
0
0
0
0
0
0
0
0
0
0
0
0
0
0
0
0
0
0
0
0
0
0
0
0
0
0
0
0
0
0
0
0
0
0
0
0
0
0
0
0
0
0
0
0
0
0
0
0
0
0
0
0
0
0
0
0
0
0
0
0
0
0
0
0
0
0
0
0
0
0
0
0
0
0
0
0
0
0
0
0
0
0
0
0
0
0
0
0
0
0
0
0
0
0
0
0
0
0
0
0
0
0
0
0
0
0
0
0
0
0
0
0
0
0
0
0
0
0
0
0
0
0
0
0
0
0
0
0
0
0
0
0
0
0
0
0
0
0
0
0
0
0
0
0
0
0
0
0
0
0
0
0
0
0
0
0
0
0
0
0
0
0
0
0
0
0
0
0
0
0
0
0
0
0
0
0
0
0
0
0
0
0
0
0
0
0
0
0
0
0
0
0
0
0
0
0
0
0
0
0
0
0
0
0
0
0
0
0
0
0
0
0
0
0
0
0
0
0
0
0
0
0
0
0
0
0
0
0
0
0
0
0
0
0
0
0
0
0
0
0
0
0
0
0
0
0
0
0
0
0
0
0
0
0
0
0
0
0
0
0
0
0
0
0
0
0
0
0
0
0
0
0
0
0
0
0
0
0
0
0
0
0
0
0
0
0
0
0
0
0
0
0
0
0
0
0
0
0
0
0
0
0
0
0
0
0
0
0
0
0
0
0
0
0
0
0
0
0
0
0
0
0
0
0
0
0
0
0
0
0
0
0
0
0
0
0
0
0
0
0
0
0
0
0
0
0
0
0
0
0
0
0
0
0
0
0
0
0
0
0
0
0
0
0
0
0
0
0
0
0
0
0
0
0
0
0
0
0
0
0
0
0
0
0
0
0
0
0
0
0
0
0
0
0
0
0
0
0
0
0
0
0
0
0
0
0
0
0
0
0
0
0
0
0
0
0
0
0
0
0
0
0
0
0
0
0
0
0
0
0
0
0
0
0
0
0
0
0
0
0
0
0
0
0
0
0
0
0
0
0
0
0
0
0
0
0
0
0
0
0
0
0
0
0
0
0
0
0
0
0
0
0
0
0
0
0
0
0
0
0
0
0
0
0
0
0
0
0
0
0
0
0
0
0
0
0
0
0
0
0
0
0
0
0
0
0
0
0
0
0
0
0
0
0
0
0
0
0
0
0
0
0
0
0
0
0
0
0
0
0
0
0
0
0
0
0
0
0
0
0
0
0
0
0
0
0
0
0
0
0
0
0
0
0
0
0
0
0
0
0
0
0
0
0
0
0
0
0
0
0
0
0
0
0
0
0
0
0
0
0
0
0
0
0
0
0
0
0
0
0
0
0
0
0
0
0
0
0
0
0
0
0
0
0
0
0
0
0
0
0
0
0
0
0
0
0
0
0
0
0
0
0
0
0
0
0
0
0
0
0
0
0
0
0
0
0
0
0
0
0
0
0
0
0
0
0
0
0
0
0
0
0
0
0
0
0
0
0
0
0
0
0
0
0
0
0
0
0
0
0
0
0
0
0
0
0
0
0
0
0
0
0
0
0
0
0
0
0
0
0
0
0
0
0
0
0
0
0
0
0
0
0
0
0
0
0
0
0
0
0
0
0
0
0
0
0
0
0
0
0
0
0
0
0
0
0
0
0
0
0
0
0
0
0
0
0
0
0
0
0
0
0
0
0
0
0
0
0
0
0
0
0
0
0
0
0
0
0
0
0
0
0
0
0
0
0
0
0
0
0
0
0
0
0
0
0
0
0
0
0
0
0
0
0
0
0
0
0
0
0
0
0
0
0
0
0
0
0
0
0
0
0
0
0
0
0
0
0
0
0
0
0
0
0
0
0
0
0
0
0
0
0
0
0
0
0
0
0
0
0
0
0
0
0
0
0
0
0
0
0
0
0
0
0
0
0
0
0
0
0
0
0
0
0
0
0
0
0
0
0
0
0
0
0
0
0
0
0
0
0
0
0
0
0
0
0
0
0
0
0
0
0
0
0
0
0
0
0
0
0
0
0
0
0
0
0
0
0
0
0
0
0
0
0
0
0
0
0
0
0
0
0
0
0
0
0
0
0
0
0
0
0
0
0
0
0
0
0
0
0
0
0
0
0
0
0
0
0
0
0
0
0
0
0
0
0
0
0
0
0
0
0
0
0
0
0
0
0
0
0
0
0
0
0
0
0
0
0
0
0
0
0
0
0
0
0
0
0
0
0
0
0
0
0
0
0
0
0
0
0
0
0
0
0
0
0
0
0
0
0
0
0
0
0
0
0
0
0
0
0
0
0
0
0
0
0
0
0
0
0
0
0
0
0
0
0
0
0
0
0
0
0
0
0
0
0
0
0
0
0
0
0
0
0
0
0
0
0
0
0
0
0
0
0
0
0
0
0
0
0
0
0
0
0
0
0
0
0
0
0
0
0
0
0
0
0
0
0
0
0
0
0
0
0
0
0
0
0
0
0
0
0
0
0
0
0
0
0
0
0
0
0
0
0
0
0
0
0
0
0
0
0
0
0
0
0
0
0
0
0
0
0
0
0
0
0
0
0
0
0
0
0
0
0
0
0
0
0
0
0
0
0
0
0
0
0
0
0
0
0
0
0
0
0
0
0
0
0
0
0
0
0
0
0
0
0
0
0
0
0
0
0
0
0
0
0
0
0
0
0
0
0
0
0
0
0
0
0
0
0
0
0
0
0
0
0
0
0
0
0
0
0
0
0
0
0
0
0
0
0
0
0
0
0
0
0
0
0
0
0
0
0
0
0
0
0
0
0
0
0
0
0
0
0
0
0
0
0
0
0
0
0
0
0
0
0
0
0
0
0
0
0
0
0
0
0
0
0
0
0
0
0
0
0
0
0
0
0
0
0
0
0
0
0
0
0
0
0
0
0
0
0
0
0
0
0
0
0
0
0
0
0
0
0
0
0
0
0
0
0
0
0
0
0
-42521,6073832512
-31531,9133889675
-17161,773383975
-16020,3622422218
-11675,5209493637
-2966,42215251923
-7762,50968933105
-12960,8040331602
1478,12375354767
15521,1726503372
11313,0272240639
6443,75587129593
5743,84592819214
9402,19904136658
23839,0225486755
24271,3343367577
-1942,55404114723
-20006,9955153465
4082,3973274231
49388,3724012375
64343,9991326332
43762,8702085018
17650,4646103382
13703,058567524
35592,5169048309
44211,45535326
20570,5029726028
-539,159347057343
3862,06819009781
7052,14389610291
-8507,49060630798
-22128,9157326221
-30645,8039016724
-39849,3451218605
-32789,9564962387
-14087,4564857483
-8383,16011047363
-7670,66062140465
-1053,5970454216
-6299,37868022919
-20700,1971764565
-22012,2371928692
-19967,965041399
-28915,8663511276
-30489,6461839676
-19932,6728491783
-17896,4053275585
-17676,5976171494
3315,85574054718
27994,8661470413
28559,4011878967
18699,4408829212
10694,05722332
1389,27994251251
3473,56557750702
10011,698217392
-4497,67805624008
-26327,3970711231
-19967,501265049
3711,00051879883
9580,53444671631
4438,55665802956
4226,08086562157
14122,7058672905
38415,4249591827
49312,8240427971
25057,2086577415
-4814,57179474831
-7204,82216882706
959,38788318634
-5720,43668270111
-12742,317035675
-9165,01295900345
7908,04447460175
37845,2718458176
47233,0198297501
21843,5693697929
-872,483857631683
12317,3139138222
38113,5276288986
36758,8018088341
17029,2606499195
4594,56850063801
16317,6577477455
44067,8977174759
45615,8599858284
14656,2291004658
-6481,55635201931
15175,7331442833
63468,2875680923
83165,3882098198
54823,3326756954
17337,7409164906
15795,6965918541
46066,117767334
56634,7876887321
31070,3287272453
8125,54393315315
12438,3658747673
16786,7017412186
-2911,71446800232
-26339,0062675476
-43331,5803416967
-57635,3392734528
-52427,0714769363
-30019,7552628517
-18062,0949018002
-14559,5578602552
-8078,31322145462
-13716,8920469284
-28517,7241883278
-29279,4377644062
-25128,7652876377
-33253,9759750366
-36722,7766447067
-28384,344124794
-28864,3977737427
-32184,5702283382
-15002,1841778755
6686,79183959961
8749,87549781799
5891,32672166824
4934,53056287766
-6695,81023454666
-15677,7441701889
-14309,5438146591
-25155,8773508072
-42849,5967075825
-39594,0846595764
-27775,617064476
-26751,0125145912
-20558,2402532101
-7425,26716208458
687,686420440674
12553,4545202255
19612,6609983444
1501,30179548264
-22295,8447649479
-28286,4506268501
-32033,4404020309
-38810,4383778572
-30670,6957607269
-17645,354547739
-15201,9410266876
-8645,61412811279
1247,98617601395
-5028,93655228615
-13776,5748238564
50,3860392570496
18114,2425937653
15413,8526473045
7366,49635910988
5426,55944156647
13024,5077505112
33078,2638187408
36217,667725563
8621,45695400238
-14379,1404256821
3145,61304712296
44326,0769338608
58692,3801178932
38627,5774359703
12012,2457373142
5508,82994842529
26585,5069274902
39872,0087580681
21448,8680744171
-19,4024747610092
3481,04262876511
11114,5760364532
-1502,73624229431
-17110,1614360809
-27057,6164216995
-36883,4459590912
-31256,6730337143
-12177,7968797684
-5068,38585305214
-6070,63761556149
-3910,06011295319
-12843,5220899582
-28363,7809638977
-27878,9641578197
-21988,9808293581
-30248,0442838669
-35587,8696517944
-26213,1500897408
-21691,6340856552
-20380,7224291563
-4186,053399086
10739,1615486145
6985,26007986069
3076,35757470131
3517,22422432899
-8085,02974748611
-18804,7660703659
-16238,7885713577
-21248,0083632469
-32970,0525004864
-28328,2091641426
-19404,3474988937
-21606,034488678
-17250,5035662651
-5441,10332918167
-926,078990459442
6685,16230392456
15746,4931278229
4098,45722579956
-14991,2313387394
-8429,46683549881
11052,4653186798
12043,1425495148
5034,39731550217
6179,71633553505
21238,0209555626
50189,668182373
58991,8092784882
29774,323251009
-909,430193901062
3530,76827096939
23786,6730241776
22230,6051726341
7301,92052125931
-4502,2527885437
-6683,50426483154
10845,3838357925
26673,1362309456
16781,1987583637
1289,37306571007
-4522,53705978394
-16619,6700639725
-30082,9549632072
-27092,0259957314
-23464,2586125135
-35777,6263961792
-42845,1344919205
-33513,8631753922
-27881,8807060719
-22330,2796981335
-5923,28084278107
900,715468406677
-5488,72599363327
-5026,1898765564
-5732,53330779076
-23019,6486816406
-35636,5426263809
-28471,274851799
-21306,1837131977
-17784,420389533
-15141,428235054
-24307,4442129135
-30114,3867030144
-16191,356467247
-5397,03354430199
-23456,9833126068
-48739,3250722885
-49143,8567976952
-36739,6930627823
-22603,0203022957
-721,93771648407
11729,9638872147
6497,91074848175
6570,05157017708
12516,9963724613
3671,15874671936
-7849,45233821869
-5871,37166643143
-9412,28868341446
-19733,4334292412
-17177,8499875069
-14404,2611312866
-20648,8271284103
-14731,7608687878
1378,15197181702
10688,2863483429
22392,7744989395
33631,0636014938
22773,6785202026
3040,66591644287
-4731,47460031509
-13916,932217598
-24921,3519253731
-17808,4488534927
-3690,23526644707
-696,034540176392
5149,51529598236
16365,2309885025
13881,9897215366
7476,5386660099
21560,0611958504
40723,9977712631
38394,9490413666
28139,6463196278
21393,1611932516
12856,8093709946
14984,3083610535
23886,8155331612
14140,7992558479
-3010,76041710377
2544,02847146988
16470,29708004
13358,168235302
7740,0102057457
8162,44621324539
8249,52957773209
18509,0185976028
29780,9668550491
18075,0012061596
146,475268125534
1235,29313135147
3549,94800376892
-6072,14858531952
-8153,25290751457
-3169,67444729805
390,520357608795
14501,2781267166
27777,7128229141
18918,4813501835
7460,45018041134
17233,9591975212
27572,6868247986
19768,3260731697
11745,5393848419
8335,76628255844
8991,05179023743
22900,3845720291
28278,7288017273
8456,51069641113
-6955,74396002293
15945,5832409859
59207,9064798355
73376,9579157829
53158,1259064674
26224,3767576218
18366,7817840576
37235,0479164124
47781,182238102
27855,4503960609
7948,83177757263
12189,241774559
16981,629817009
3987,53817987442
-7640,42648243904
-14697,4803943634
-26212,3095149994
-25574,4107427597
-9998,06695795059
-2795,88682413101
-1561,5458534956
6533,26337766647
6073,77175998688
-5834,56934356689
-7166,14023542404
-2941,86944019794
-6855,15347862244
-4452,9701833725
2706,50679588318
-6262,02692604065
-17238,9445667267
-578,82762670517
26895,3669881821
31683,3068919182
23657,3342971802
16241,5742819309
4865,31921195984
2655,78159332275
9352,486369133
-1334,62127161026
-21697,7951991558
-19211,5775527954
-3799,21156692505
-2942,15878105164
-5123,41317415237
382,671909809113
11583,603705883
33695,9870681763
45276,4099411964
24625,4231741428
-2273,36629319191
-7295,57157325745
-7665,56318092346
-17645,913670063
-19236,2939693928
-13421,5718770027
-8778,86285972595
6217,06583595276
19418,4296979904
9844,63366866112
-1918,4557338953
11175,0300297737
28605,1292114258
23741,351082325
12222,1084322929
5990,00091552734
8442,13362216949
25360,4502782822
30384,5739965439
6818,44040846825
-13644,4062128067
3914,60147714615
41931,7293481827
53119,1349015236
34677,6183204651
10904,7845855951
1098,13518714905
16300,1658649445
29207,3674583435
13887,951508522
-5246,90283536911
-2914,29884624481
520,984121322632
-11512,3798360825
-20022,5751023293
-23250,0838099718
-34218,7878904343
-36747,9940481186
-21993,020195961
-12753,2046134472
-11799,8026460409
-11378,7523078918
-22619,7781085968
-35346,3161702156
-28355,9067275524
-17326,2262750864
-25384,2220778465
-35027,3725280762
-28326,682492733
-22754,6523382664
-19922,2459831238
-2556,99760484695
13873,1305541992
11311,0120949745
7969,04481983185
9109,87159562111
-1859,20409584045
-12754,3388090134
-10741,7844986916
-16692,5667960644
-29655,6375035048
-21219,9378824234
-2023,53698253632
566,184766292572
-919,587010860443
4323,22281682491
2466,12640285492
1557,17757225037
9735,9538898468
3834,27452540398
-15095,6453123093
-22676,0716686249
-27911,5604820251
-38718,2245345116
-33784,4626538754
-15425,2283610106
-1689,0420832634
14575,2457437515
28243,8944001198
17156,8629479408
-3827,05113458633
-10481,7353162766
-16392,0170001984
-26742,7087001801
-22794,6591300964
-13049,8566962481
-13533,4878630638
-9197,24915790558
2545,78017807007
1566,15318346024
-2790,32055473328
14826,5658125877
37946,7579421997
37176,2276849747
24823,3842449188
17222,6937178373
22231,147269249
41924,0741357803
45275,2702264786
18260,3179693222
-4482,05452561378
13587,6772317886
61560,8993644714
85783,6485161781
64906,7960348129
32455,1111034155
29868,6196660995
57072,5768671036
66288,3668584824
39511,297680378
14099,7983484268
18238,3928399086
27668,7272853851
12642,6723322868
-10606,1799342632
-27533,5702798367
-33981,4332442284
-17360,8713083267
3643,94795370102
2508,20957422256
-2827,6392468214
12443,1973452568
26550,6673707962
15663,1066727638
-931,526053905487
-12992,7081490755
-26765,0714159012
-27463,2319135666
-15722,244099617
-17127,6787092686
-24730,0940104723
-8835,29932928085
17191,9133548737
20211,8040590286
10147,0472807884
3022,97814154625
-3833,44076633453
-131,12247467041
8924,99263477325
-2939,30981683731
-25219,7914015055
-27009,0329060555
-19391,359003067
-22956,9812426567
-22082,9620194435
-11405,2853226662
2107,66256141663
23701,0773077011
33947,7698740959
12378,9300773144
-13872,1164475679
-14789,4848570824
-8843,71302127838
-14873,6901297569
-16239,2181766033
-12595,8065963984
-14127,8030896187
-7375,46750831604
2811,88965415955
-6202,6451113224
-20003,4047805071
-6838,57506608963
18682,7989768982
22660,8070883751
13200,0902712345
4277,5825432539
-187,844817638397
11282,6206674576
21544,543364048
5748,10473370552
-15414,1980062723
-4615,82347297668
26584,8102836609
35773,3878698349
21943,2415049076
11015,8105274439
23138,2518773079
52900,4035406113
57645,0255198479
24753,6751916409
-5188,59231853485
4085,14249181747
34904,1437997818
40041,6536374092
16687,6505579948
-8972,38019001484
-15593,4247608185
5920,88840007782
24340,3609495163
11816,6962037086
-7055,66458725929
-8613,72056627274
-12771,8559713364
-29234,0691828728
-37342,9238526821
-39818,3400541544
-51562,1682806015
-54877,2833976746
-38881,4148306847
-26824,5560898781
-21098,2292370796
-4257,18323898315
8751,96117782593
1242,54855108261
-7183,41766667366
-9871,97361063957
-21653,5431113243
-29893,6294593811
-23484,2452340126
-24832,8968691826
-34452,5844767094
-26744,0884776115
-12456,0131254196
-13275,7348008156
-13701,3459334373
-7067,45808744431
-7793,16386365891
-6512,22211742401
683,724257469177
-8813,03103375435
-28042,9426887035
-34004,9298520088
-38404,174041748
-46019,7966241837
-37151,1496751308
-19753,5953924656
-12699,8691549301
-4486,14905643463
6602,40133571625
1049,55331945419
-11065,7690271139
-8890,77049922943
-6664,98489761353
-13745,6895103455
-11929,060082674
-5925,8827944994
-12506,0942864418
-16658,8863105774
-10685,4945187569
-14774,5724022388
-22863,0100889206
-5739,21124124527
23894,7941169739
30791,0669350624
21576,1088404655
15616,0448316336
24142,3207378387
48067,2807846069
52950,3071513176
22397,0667717457
-7878,9388538599
1013,36619234085
36801,8647556305
50344,8612146378
31754,3666138649
7734,06865561008
4833,27459669113
29334,9469585419
43867,6472907066
24577,663418293
3202,08330559731
8302,37169361115
15871,875161171
748,798356056213
-17496,6226491928
-28358,9021340609
-36287,8514657021
-27156,7931947708
-6863,40793180466
-1951,65156888962
-4682,43996441364
8733,36219978333
22893,8483066559
14826,9688186646
1225,43729567528
-6797,08811116219
-16920,8817958832
-17040,6857395172
-7190,40629243851
-12691,4323785305
-27162,8319613934
-18707,8707513809
3950,40871620178
8661,66513538361
2138,30476093292
-1545,36074709892
-6958,28489875793
-3737,53127670288
6911,59310531616
-1786,76772356033
-22800,3171768188
-26941,9414920807
-25060,8520975113
-32593,8319044113
-31084,583148241
-19139,1261377335
-10127,0718569756
4521,54094791412
17728,8022947311
7597,07112789154
-10420,6612145901
-15345,097512722
-21789,1526317596
-31646,9541110992
-25919,487351656
-16065,4891182184
-25046,6973614693
-36498,1729106903
-31000,3393850327
-25199,9130525589
-22116,8523833752
-4942,87241077423
11497,2402229309
9050,6884727478
5231,78079605103
6446,16140413284
7545,79252338409
17974,10110569
22718,1712994576
1732,94084119797
-20191,5417361259
-7082,7740521431
26243,0465784073
37097,4800596237
25488,2974567413
11065,8380240202
4736,81757593155
18036,8007593155
31344,7328314781
17630,2891786098
-3211,64442610741
-7321,75099039078
-12127,0971021652
-24935,0130152702
-25976,0205895901
-21466,3068789244
-37833,5553798676
-64042,0248498917
-65113,7255959511
-46451,7826833725
-28646,5396140814
-14772,4948267937
-16839,1294612885
-30866,5575561523
-28951,2745203972
-14392,4074531794
-7571,14481210709
755,049074172974
12859,4377655983
7641,08308196068
-6427,68888044357
-11029,1197133064
-18688,1604452133
-28872,3861551285
-21897,49740839
-9093,20560109615
-11333,7174882889
-13637,3832607269
-5066,96667337418
-3714,08306980133
-6106,34862077236
10208,501162529
31383,7219772339
31339,9200778008
23028,9251582623
21156,4399983883
30639,9040489197
52368,9710130692
55159,2868962288
24135,4783568382
-5026,07559394836
6606,88317584991
47221,9494686127
65855,580868721
48888,7012934685
23358,0532087088
17509,0815901756
39091,8022727966
53081,7023358345
34191,092818737
10734,5816665888
8969,50752973557
8391,60116195679
-7358,17595529556
-18749,3452391624
-23319,0095322132
-31561,6599168777
-27912,4075374603
-9725,22723197937
-1358,52349758148
-544,364826798439
11822,2651848793
20866,0342206955
11084,2139081955
2122,75566244125
-1043,27234375477
-13275,6366877556
-21133,5130872726
-13773,9057078362
-13567,948029995
-20746,3561816216
-10965,032230854
3524,38133525848
1571,3733549118
-409,167721986771
4047,59969890118
-1869,01664543152
-8068,59832191467
-2406,09747600555
-5899,02349090576
-19668,8360514641
-23909,4275836945
-28148,0961151123
-36063,0001130104
-27142,7949025631
-8902,93072211742
-4936,01915884018
-4360,90016651154
4334,25871229172
3009,20454883575
-7036,71513700485
-11092,3948059082
-18848,8791236877
-27654,6633062363
-18276,9399607182
-3039,2470228672
179,741653442383
4960,95596885681
12080,0860214233
4103,96969795227
-5128,33061754704
8852,0451259613
27979,5262174606
27226,5328555107
20715,2038412094
17100,5394544601
16513,7185678482
27507,8063936234
30029,8865056038
7293,4467549324
-12306,2491426468
5252,89206409454
43744,4863958359
56706,9988956451
40294,158860445
17455,9145585299
4597,4014172554
15352,4603843689
29507,1879777908
18118,4920687675
-264,522605061531
-1187,35460758209
-3092,9870595932
-17165,9152293205
-22722,5073244572
-21163,2269597054
-30541,1563224792
-35695,5156841278
-21168,1241016388
-8512,60557961464
-6960,77604115009
-13538,4586105347
-33740,1031360626
-47023,8213033676
-34387,3075876236
-18837,9058197737
-31038,2653794289
-55542,879114151
-56226,1881790161
-39754,1606693268
-22775,8838602304
-2464,11498785019
7480,06314659119
-196,240412712097
-1804,00511574745
5536,40925431252
-2506,50844907761
-18394,625412941
-17490,0536618233
-13151,5093598366
-17082,0219671726
-19765,7968835831
-29111,7590789795
-40342,8286581039
-29354,9963691235
-6077,28313934803
2243,31177330017
4520,24225902557
14039,4583320618
13350,2245473862
2729,76466691494
-3129,9391875267
-13410,7345352173
-24112,3832931519
-14666,4142901897
2297,03575873375
2488,14398765564
-860,261226654053
5873,75136137009
5604,34033513069
433,285116314888
14037,5099873543
34754,1645946503
36213,922270298
29632,1460561752
29222,1732920408
39918,6279187202
62583,7532567978
65935,7952313423
34543,3845667839
4248,53031718731
14821,432156086
55602,9676332474
75159,6333451271
57721,4766778946
30780,2583118677
24664,255338192
46592,8692188263
59935,6700305939
40036,4654231071
16342,055683136
19976,1008009911
30845,4722948074
18906,9246788025
-747,561005115509
-12788,7086912394
-12581,6129870415
9345,8538351059
29894,9536099434
23077,5415968895
10623,3861967325
23059,3871445656
41181,0951375961
33845,0891342163
15068,1738805771
-792,036045789719
-15461,9002890587
-14423,833524704
-884,580238342285
-1671,82349467278
-10375,1621874571
4427,93633794785
33549,4503278732
40228,8812375069
27216,3869590759
13614,2861535549
767,261585712433
98,4928159713745
10345,5390424728
3692,46378755569
-15696,8640339375
-18451,1018881798
-13069,1467552185
-18948,808280468
-19894,8972225189
-9940,85228025913
-712,805119514465
14532,6258106232
27012,1794600487
13436,0194022655
-9811,7040463686
-17306,9829516411
-22568,5022411346
-31931,0143609047
-26596,6750457287
-14510,421934247
-16432,6247653961
-18568,7925739288
-9851,2219953537
-9010,74655795097
-13361,461397171
-715,433811664581
15787,0146713257
14304,3076028824
9518,22902774811
10566,5011421442
16669,5793323517
33111,5126857758
36584,0933432579
9872,68184804916
-16256,7111999989
-3215,31758308411
36851,7872266769
54795,2298145294
40400,6996893883
17775,2534286976
9081,78972578049
24744,1839790344
36658,8345065117
18670,541615963
-4129,01829791069
-6996,75751972198
-9592,68227291107
-23540,1571950912
-29267,0265541077
-29046,2638363838
-38691,3155827522
-41737,7368888855
-26220,3194475174
-14144,2859320641
-9609,54035079479
-3126,15078783035
-7624,45423603058
-20522,8366956711
-19739,2989506721
-13844,6501028538
-29468,6475524902
-53465,1733293533
-54249,9367189407
-41383,3962142467
-29962,3956381083
-12801,5499873161
-2081,18232917786
-8191,77921390533
-8810,70840358734
236,908468723297
-3274,88667106628
-11588,8061666489
-7561,70963811874
-9350,55674958229
-21735,5068719387
-26960,6935110092
-33124,4804029465
-41922,5762505531
-32101,2705204487
-11423,1240788698
-2707,18139505386
3997,25698852539
15616,008562088
12462,4146168232
-316,907285809517
-3055,26256656647
-7090,15705490112
-16616,8406152725
-11923,2300424576
-588,724105000496
-8101,23329257965
-21934,5722608566
-19685,0513715744
-15751,3621530533
-16089,943228364
-1513,55127191544
17726,9332876205
18236,4572663307
13398,7702755928
16154,1058602333
27570,6135840416
50345,880238533
57852,3362064362
30832,7886385918
123,175559282303
6352,11961698532
39768,2816495895
53212,1302709579
37841,1923098564
17904,1574262381
15232,1163682938
37767,289683342
53570,0505990982
36639,6026515961
13705,215123415
8844,83835506439
2744,61255073547
-14161,0038156509
-21819,4334769249
-23517,9509694576
-38793,6108441353
-51272,3207893372
-39471,2959561348
-22407,5693769455
-10870,8109502792
8296,35812902451
21762,7330007553
13532,963039875
4067,84495306015
2041,77986752987
-10528,0855765343
-23882,5419111252
-19655,1601457596
-16933,7387180328
-23123,4282215834
-19942,7362151146
-17243,6428041458
-24731,3058829308
-21261,458107233
-6969,36135578156
-2813,32639884949
5,54677295684814
9830,23756122589
6925,22151613235
-5759,97538423538
-10896,7851295471
-18712,7815752029
-28943,1320562363
-21097,8983006477
-5219,71284687519
-5606,79553318024
-9622,41542339325
-3047,49995326996
-3520,58224868774
-9402,59857141972
2161,13368844986
18415,4542331696
17186,2814378738
13406,8148212433
16500,5401835442
25238,8385314941
43972,5169115067
48225,0657348633
19922,8380217552
-9406,77624392509
1514,70243453979
44519,9838790894
67927,8873081207
53425,2203440666
27526,4388967752
21245,0820741653
42848,502494812
56253,7001581192
35668,3757433891
9565,64406728745
9737,47904157639
18051,3941049576
6371,63650894165
-10583,3621544838
-21088,346123457
-29248,4499564171
-21383,9682760239
-1065,20023870468
4482,90067052841
412,329924941063
7857,37897157669
11725,6212091446
-1276,23023700714
-10273,8825364113
-11952,730071187
-21736,1519961357
-26312,9715881348
-15653,233812809
-12512,7053182125
-17711,0080983639
-4093,20877838135
18786,6798429489
21177,333574295
12877,4625384808
8153,24202084541
-3224,64810752869
-11853,4219665527
-6340,02516269684
-9552,77802586555
-24528,0446479321
-25486,8482031822
-20529,7218437195
-26187,5081191063
-24123,7447342873
-10300,6715677977
-3302,74608659744
3782,37881755829
15845,09233284
11834,8885920048
-4592,87620472908
-15224,8829722404
-28320,5062990189
-40579,4619789124
-31338,3177361488
-12996,4279729128
-12661,168648243
-18467,378569603
-12690,7107515335
-11024,5692715645
-14613,0047314167
-4607,43152856827
6838,49522304535
3573,22767114639
2543,24898910522
7540,32911658287
9358,24651145935
17906,6038150787
23662,4439091682
5308,52154636383
-16955,7682886124
-5805,88936567307
27161,0816802979
39411,6910600662
28817,9766249657
13810,1809350252
3655,14052248001
12079,1700124741
25567,6227989197
15612,7625207901
-2839,8840764761
-5667,14419221878
-8989,94096851349
-21279,230298996
-22923,6620635986
-18585,2502601147
-29860,1334290504
-42117,6909446716
-33238,9096069336
-19780,6350069046
-11528,0418998003
-2138,25146532059
-4897,28867435455
-17924,4300851822
-16835,0989823341
-7768,07402992249
-16607,2110700607
-31360,339799881
-27527,6390423775
-19592,4113516808
-16904,830526948
-1894,6978969574
15379,714099884
13373,143321991
7975,15865373611
10406,858533144
12039,2675485611
21303,7712717056
33715,6813592911
24865,4440498352
4226,01535999775
3740,1943192482
16317,0071706772
15414,27429533
10311,4263319969
11131,5626645088
5238,17336940765
1573,75096225739
8858,56862354279
3285,67196130753
-15253,7690335512
-15914,5008816719
-4349,81301498413
-5348,08720970154
-7464,9853386879
-1179,67631387711
3879,40755367279
15211,4768953323
28415,8364562988
18454,1698541641
-4544,11128628254
-6863,94837522507
3666,4851732254
411,276398658752
-5873,90370750427
-5331,22881782055
-7381,4783873558
-1853,99415969849
12073,3076763153
9074,97926807404
-4755,69096159935
-2221,12894392014
3714,98871517181
-5399,76700115204
-11209,6081171036
-7364,53493797779
527,015239715576
19952,6054534912
33902,7952280045
21056,5603070259
4169,74974751472
14693,3754944801
34348,6128063202
31470,9064006805
17904,4822292328
7447,06613004208
4717,04491090775
18073,4008398056
24779,5170288086
5543,75735998154
-12218,473672092
7307,31284236908
52569,1335935593
73039,8411808014
53958,1334133148
22943,224275291
9736,00450897217
25604,6941146851
39350,3637304306
23144,2389526367
978,88011944294
1467,56830263138
6549,10009002686
-5537,16312170029
-17703,3501884937
-23518,0327692032
-35963,3851714134
-40558,3532142639
-25326,7574729919
-13470,5546131134
-11065,6143151522
-6222,96611452103
-10505,3253355026
-23817,7753391266
-22927,9858620167
-13549,7283369303
-21558,5608563423
-35675,5760269165
-32406,7833724022
-26113,8907110691
-25124,2546623945
-11607,8627109528
5033,25349140167
4525,66138648987
2380,44949674606
7951,13429903984
2195,78718852997
-9312,99494075775
-8731,65242767334
-12442,5647006035
-26678,6999684572
-33096,1458725929
-38445,1122150421
-46922,5686035156
-36874,8933198452
-13241,518196702
-956,990301132202
6910,51040840149
18425,9393973351
14658,8985300064
-1236,26164841652
-12084,9937820435
-25219,3678979874
-36122,3211503029
-25497,9108343124
-7574,58480358124
-10241,0367503166
-20385,2395057678
-16428,3798775673
-13122,9004917145
-14184,5772050619
-298,446922302246
16674,5425777435
15755,1771688461
11890,1500086784
13400,2535290718
16278,6828279495
28757,2390108109
34750,262887001
13720,5726799965
-9990,89816057682
1453,54928684235
37553,6720237732
52568,8237695694
38761,9931721687
18180,6078307629
7052,8412194252
18474,7196617126
33869,451426506
23529,5956749916
4156,48655819893
3089,80457735062
3434,850938797
-10700,4776620865
-19234,2823624611
-19156,880928278
-24432,8040618896
-21654,1025400162
-4828,43924331665
2556,81246185303
1171,44322443008
11476,5777044296
19927,5581769943
9962,92421293259
1016,09779262543
-666,15609562397
-10204,7789883614
-15747,0722475052
-7252,13358688354
-7372,09377098083
-16795,5174694061
-6034,56776571274
18189,0352649689
23851,6704721451
16562,7375764847
11764,2131534815
6114,76249837875
9242,22869682312
19529,5624842644
10404,2639522552
-11576,2246586084
-15105,2543020248
-8901,97388839722
-14345,2060723305
-16527,1572370529
-8722,99088168144
-389,640692234039
15888,3285799026
29598,081182003
16398,8297872543
-6275,3750115633
-5463,0622677803
4890,98845386505
-83,8511438369751
-6171,93569612503
-6340,78659915924
-8642,75297784805
-1161,66782188416
11578,6020717621
4550,73432207108
-11055,5216388106
1791,01945877075
38800,2025690079
55543,4352483749
41226,6677556038
25256,4712290764
36134,7577199936
68194,7310972214
75522,489818573
43431,8646903038
11053,4940721393
16943,8336992264
55717,5421438217
76661,9035243988
53435,1583580971
16540,3358929157
9412,08899211884
38767,3417778015
58868,3426289558
40933,4879355431
14415,3339135051
12982,331152916
20380,528878212
5414,45960617065
-18404,4008626938
-34193,4817280173
-41315,422109127
-28003,7024307251
-4935,15510654449
-1531,5437707901
-8790,75541639328
-1974,73939180374
3926,72051525116
-7686,76224040985
-17271,6290533543
-19952,291962564
-31158,6911616325
-37878,3888163567
-28711,317899704
-26547,0514557362
-33044,6731441021
-18752,6810216904
10172,5399951935
20065,4174618721
13824,0478484631
7489,86915624142
-2667,61577749252
-6704,06179952621
-508,758521556854
-9117,86132383347
-30154,4303138256
-34579,865401268
-29586,4160604477
-33090,858912468
-29406,1918976307
-15311,6392030716
-7456,12435007095
1289,50518035889
10955,2360954285
-182,347946166992
-21379,2924873829
-28675,712249279
-33891,624329567
-41979,9690675735
-34043,7892141342
-19016,5551555157
-21957,9858827591
-30245,3263587952
-25039,3802633286
-22331,312371254
-24454,5331897736
-10326,6084136963
8292,4880065918
7944,57294607162
2803,00708198547
4224,82388567925
10587,8788280487
27288,32878685
33881,8699421883
10472,1240310669
-16503,2079219818
-8116,49483633041
25487,114402771
38849,6906542778
25582,1497182846
6665,64305484295
-5417,563829422
2905,08801364899
17761,0786890984
8979,43041944504
-10233,1415383816
-9231,96542596817
-2096,17317771912
-11659,7075352669
-21299,6459784508
-22879,9124717712
-28706,4127864838
-26821,9586257935
-10160,1583609581
-2173,39701271057
-5250,93148386478
-4706,09723377228
-11206,027182579
-25903,9684743881
-26336,3898072243
-17839,9228910208
-26016,9909324646
-39284,0348844528
-34234,8384242058
-25599,4478092194
-22194,5896241665
-7689,99692344666
7572,51729869843
4553,98427820206
65,6073818206787
3337,82630681992
-4801,18654251099
-17758,8204488754
-16222,5185494423
-17109,4770512581
-28338,9470968246
-26889,9646306038
-19016,1310968399
-22930,6464910507
-21505,3940663338
-8381,96684634686
-2223,71405601501
3127,51832294464
14558,0768680573
10362,3940563202
-6767,46476966143
-15052,9905171394
-23786,564707756
-36289,732375145
-31104,413418293
-14663,4679077864
-10758,2864589691
-8832,91514873505
2500,436170578
4205,29694986343
-2308,26294660568
7189,14203119278
22458,223446846
19999,3430156708
12976,9758839607
12663,3534524441
18206,1265678406
34780,5726909637
40646,8955469131
16470,8295536041
-9889,84614622593
1128,03689146042
43476,5577201843
67586,670165062
53404,362557888
26551,2996093631
18321,4921722412
38260,3157072067
52142,3383636475
32650,2040038109
6755,00308603048
7204,03916692734
16281,8714962006
5035,8304901123
-12091,2798099518
-22488,0080195665
-29034,7181830406
-18717,4173879623
2078,50656414032
5936,88902902603
424,146406531334
10641,7602787018
21780,0666379929
12098,3519206047
-960,070436954498
-7934,15777987242
-20290,4367890358
-25277,0747175217
-14401,3538732529
-11419,0583438873
-17453,4891353846
-4699,51673173904
18615,4223451614
21815,214548111
13092,1349382401
8019,63897633553
-3202,91587638855
-12455,0914831161
-7378,97418880463
-10141,6177129745
-25748,3642957211
-27827,7214751244
-21972,2499427795
-26475,652173996
-24822,0397548676
-11095,4269176722
-4497,18230628967
642,480074882507
11548,8777942657
-3236,73754453659
-69177,6334089041
-152572,215056896
-187477,937685013
-156253,653342724
-102107,627857685
-74239,5921036601
-93451,5815534592
-147912,167281151
-208142,951737404
-246700,934598446
-251034,266295493
-226732,615474224
-192151,152889252
-166572,003836632
-159588,042327881
-167970,527444959
-179740,797745705
-176404,1129179
-95827,4478201866
109627,059015036
322570,116029203
358088,997572899
219811,691729069
79680,4727320671
36836,3015320301
52318,1726471186
51945,3612465858
8625,45202732086
-4337,59774875641
81282,9344012737
180694,736448884
167719,134649277
69539,813117981
28372,4618201256
94462,9873371124
182768,756130457
194174,265682697
107602,378628254
23030,6359891891
34610,4499206543
65980,2458027601
11003,7382602692
-65876,479309082
-39722,2024831772
83888,0067753792
193586,89605546
195983,83890295
84800,3137969971
-22429,0016851425
-10276,4827387333
49144,2012281418
27290,0028319359
-38272,4460992813
-25902,4954328537
74088,4389147758
164444,887028694
160147,86677742
50777,8310947418
-61260,1891078949
-48678,1462936401
61666,6982033253
121010,006515503
73730,6434755325
26011,5692615509
61596,4605708122
132458,139428616
150346,358281136
93753,6043081284
51854,9474382401
95709,4548630714
155983,555512905
127312,607653618
23378,5032072067
-29542,8363676071
24745,7959904671
109002,72873044
128203,830196381
80604,8905525208
64764,909535408
121684,872094154
169256,426914454
124875,552744865
23248,2772541046
-14272,8579654694
45723,1067008972
114912,125469923
104676,07185173
17594,6710453033
-33920,8044261932
22744,3509168625
121196,592018604
159148,272149086
108491,526384354
55008,4611301422
75010,3692245483
128569,667076588
163923,48813343
168937,585399628
119112,124351501
21913,1781406403
-51967,2519050837
-40802,5909318924
45813,0364532471
123220,666130066
125803,549128532
84450,6602176428
67889,9787836075
85314,3531398773
84616,2271175385
48505,4822864532
16891,2364755869
19359,7683200836
26096,7639694214
-7267,38704681396
-63720,4735746384
-109352,079733849
-124592,980648041
-91890,727678299
-37380,1666145325
-5634,11096668243
6319,77191436291
26525,2326202393
43483,1892080307
17599,1761903763
-43669,6193494797
-98810,7047361732
-121354,139921188
-96010,8538751602
-45341,9175033569
-18189,873128891
-18546,1377580762
-13920,3539419174
-5701,96199512482
-25593,2345180511
-65841,00588274
-94735,6716865897
-98482,7249984741
-69494,2817163467
-30446,3513536453
-22358,0045008659
-39140,634858638
-44741,6685175896
-43018,457359314
-58780,6828231812
-77494,1087245941
-81173,0673541725
-67968,0446453094
-36206,2018089294
-14835,5938510895
-30814,883430481
-57482,3113035858
-59566,944896698
-51748,9751214981
-57059,2974891663
-60815,1661891937
-59818,1834094226
-71419,3837442398
-82611,1936950684
-78719,8892188072
-79162,8928589821
-84952,3921892941
-70022,6093502045
-42910,8936491013
-31836,4016342163
-29154,8770689964
-24947,4577081203
-21584,1883292198
-12478,5613031387
-14856,3903164864
-47837,9279093742
-81994,8051298261
-75858,8678898811
-42385,9419813156
-23848,8580741882
-21880,5065627098
-24832,1605779529
-37261,3826942444
-45885,2470493317
-43774,6010332108
-52230,9864692688
-68333,5651279688
-74033,6610641479
-78766,8824901581
-82484,2898025513
-67295,5641860962
-46733,027867198
-52694,1613292694
-74779,1132411957
-80612,5158720016
-76357,2891144753
-72725,3714127541
-59429,9256491661
-47865,3750772476
-49588,4917912483
-44674,9818849564
-30790,8294826746
-21860,7434134483
-10584,7282361984
-4725,81390047073
-24557,3821530342
-50122,8686959744
-42791,5181641579
-10581,3974285126
4105,29066419601
-4031,3196349144
-14253,802726984
-12060,3236093521
9407,18646907806
23316,9932842255
4150,21587228775
-22844,2510160208
-27952,6700119972
-28500,4324541092
-41578,6933813095
-48480,6044688225
-47329,689727664
-50304,314781189
-43858,8483982086
-26565,9307289124
-21425,7103319168
-23584,5357633829
-10667,7695236206
2912,47516727448
-4418,22096061707
-16015,9853162766
-22643,3424339294
-37142,7978253365
-46503,9259786606
-37657,0096483231
-33566,1356730461
-38894,0072704554
-24670,8795084953
5652,35993862152
16428,3345870972
6343,58874702454
-4421,13040328026
-13783,5060300827
-11999,3039627075
1489,49965429306
-2691,30047893524
-25100,0002048016
-31342,1768875122
-20872,17694664
-21317,5118179321
-27011,3767323494
-23453,4989590645
-13402,6945161819
8336,774310112
28650,8369636536
18571,6581068039
-8205,73179805279
-18867,7118916512
-23039,9392232895
-35852,5031738281
-38998,4352645874
-30765,3971037865
-26594,0414128304
-16724,8055305481
-1156,41999053955
-3901,48704195023
-16647,0279119015
-5034,52576875687
22672,8479890823
29238,4001107216
16730,572573185
6266,4590241909
11357,1711039543
35195,0187397003
45805,9908518791
22047,1898579597
-4500,767760396
4173,40719985962
33132,1793889999
39154,0881795883
21771,0879735947
919,63104480505
-17051,7000732422
-17487,5063943863
-3862,38317155838
-5829,03265523911
-19687,1079862118
-10105,0967950821
22308,5674934387
37001,4523386955
24220,2864055634
6023,22352510691
-5423,80805110931
1557,4411239624
17436,5375151634
10327,9758992195
-12648,6455742121
-16805,3115549088
-8689,7577047348
-14694,6621880531
-22906,6137757301
-20350,6842001081
-10525,0092935562
12203,0434331894
31143,1206159592
19498,7740149498
-4472,062289536
-4181,00181102753
9930,905626297
7171,5274772644
-3084,19440031052
-7620,6620028615
-5788,2301325798
11094,7074403763
25515,0539503098
11886,9665727615
-10298,6948296428
-850,590480327606
38315,7096233368
60506,7029643059
46878,6510219574
26444,6351820827
33020,6718354225
62574,5483398438
68563,7440786362
35989,5507473946
3797,16815024614
9846,46422433853
46910,4139022827
64699,9280843735
41260,651869297
4887,99043428898
-9564,47127389908
10428,7071080208
32356,681687355
23063,7606363297
2787,28513622284
49,9585075378418
-1644,53296375275
-19740,6935095787
-33827,7120013237
-37695,2911018133
-45940,2931194305
-46352,0133314133
-29114,2389550209
-17292,8447151184
-15100,3600775003
-8720,11463832855
-10246,5883083344
-22679,1966247559
-22971,8850307465
-14631,3386488557
-26495,6822752953
-52220,4177136421
-59128,1387271881
-50247,9286704063
-41578,2619549036
-26559,7830681801
-14368,4725184441
-17085,7029457092
-14182,8721811771
2,70192396640778
-589,716220855713
-14443,8279919624
-17427,8456087112
-18661,9729926586
-29215,6140869856
-35120,478372097
-40394,1345710754
-48199,5504755974
-37028,8553042412
-11186,2329660654
57,4364762306213
891,055599212646
7667,88057422638
5516,83165836334
-7873,63373184204
-17567,9937782288
-30379,72133255
-41535,4984636307
-29823,7464213371
-7952,47257822752
-2526,64089584351
-3110,25655555725
2199,20478534698
-4180,83065986633
-16219,1103317738
-8294,65656471252
5263,9190120697
3789,16752433777
2470,69676017761
4425,25819903612
-4733,74036502838
-10694,1549453735
-1593,58430671692
2826,50877189636
1870,00351917744
11966,9508576393
18328,173075676
9282,24540996552
5165,65824651718
7239,51058447361
-4165,22561216354
-16145,7882995605
-10128,3022556305
-4360,76712322235
-4983,51842218637
10772,7607398033
35018,8271837234
38343,0011930466
28638,0372228622
24248,0199641585
32093,7840466499
55049,5168628693
64595,1412200928
38804,7917981148
7019,09559100866
11017,6080913544
50817,0753040314
78296,2334241867
64721,2107391357
35031,2065937519
27529,7183113098
52957,5737428665
73367,3450918198
57242,2129693031
29551,8900664449
22679,1403708458
21246,1287403107
1995,79586696625
-16801,5320954323
-23706,0684518218
-30103,6800079346
-25362,1721858978
-3693,04078292847
8876,74617004395
8070,32246118784
17647,4854335785
30264,713098526
22815,4921441078
9450,60242128372
4678,59027630091
-4628,51501369476
-11646,454668045
-3807,69178533554
-3331,74703884125
-16366,3465259075
-12653,8511328697
7274,92825698853
13112,8347401619
8639,3647403717
9760,03989642859
9068,02126550674
11975,9574975967
22567,0580654144
15996,5523314476
-7005,52412974834
-15446,4357018471
-13370,6554365158
-19727,4101114273
-19371,2601742744
-6326,48476725817
3989,1257686615
16837,3263187408
29893,6505002975
19366,4889826775
-4290,19705790281
-7185,20820713043
1711,57634544373
-1471,73078536987
-3889,40346479416
74,5130744874477
-5577,85568666458
-10141,9204626083
-1630,70561790466
-1511,67304039001
-11245,4305466712
-273,590638637543
26995,5134344101
35913,8587265015
27085,6587934494
20539,5842667222
29279,2102079391
54768,45125103
63694,6535139084
35994,2704677582
3926,99176773429
8957,63863039017
50357,0254487991
78420,3584809303
63162,0603766441
29537,5998263061
16928,7218031883
38225,3216075897
57170,7843589783
41794,0240654945
15695,0649425685
13988,5661482811
23243,5078935623
11568,3591022491
-9479,70085477829
-23176,4914516509
-30198,5657091141
-18805,8149089813
3861,07217741013
8409,08165454865
727,705488651991
10313,8859577179
26639,6791214943
21189,4680233002
5788,7717628479
-4377,59302681684
-18675,2363963127
-26721,248231411
-17379,1008090973
-14984,5790739059
-25054,1649843454
-19177,8708958626
-1189,43898916245
1501,00656747818
-3019,90604543686
-1660,81964570284
-4318,26003980637
-3642,81866121292
5673,34748268127
-266,894560337067
-19775,1880860329
-26084,7516980171
-26654,213054657
-34077,3194665909
-30295,9173536301
-15494,8931757808
-9700,81656599045
-4856,1511554718
4465,4071688652
-3137,21740913391
-21592,9182808995
-16534,7392072678
6315,66943740845
13006,8818778992
7179,59808635712
3267,15919291973
-8398,77297878265
-19008,3719902039
-12633,2906494141
-9534,10406398773
-18472,220823288
-20247,4542016983
-22037,0833406448
-32816,9775366783
-31268,8500671387
-16751,846825242
-11477,3344988823
-7943,49822902679
4419,41150999069
6090,69432210922
-3234,87008523941
-3740,62624025345
-4953,32073783875
-15100,5654845238
-14247,4178085327
-4275,5284692049
-7505,83937168121
-13356,8367805481
-6793,27891349792
-5356,45646858215
-10408,2571673393
2990,81749677658
27054,7580051422
31870,9864377975
23965,7732634544
20158,3785026073
25919,4249606133
45192,9392871857
52492,8731403351
26047,0820837021
-6279,80154669285
-2252,79151630402
38484,1159791946
67363,9922084808
55916,0934066772
29213,7673302293
26187,9503178596
54010,8907785416
70244,8690910339
48100,2423200607
16976,6618438959
15296,9244265556
35201,5839967728
34923,7543487549
10394,2916083336
-15120,6805793643
-38906,5854997635
-49460,6389579773
-31813,8731536865
-10296,6034522057
-3936,22526830435
-2238,74744653702
-10897,5373706818
-32535,6117706299
-40161,2721757889
-29329,7278085947
-27417,8848705292
-32870,5928869247
-24705,4768948555
-16499,2634840012
-20446,664287746
-15934,8750782013
-4490,15696239471
-7056,23081207275
-10976,9032711983
-3585,44849205017
-1311,41214752197
-1641,12650108337
5817,99950408936
-57,3171467781067
-21421,2618896663
-29732,623020649
-29220,5943231583
-35384,2006254196
-31421,6106514931
-14678,6994375587
-5312,59876728058
2503,39312362671
14666,1426401138
10747,2211589813
-4865,38590475917
-7082,54344940186
-5330,56806850433
-12779,2906880379
-11847,8412027359
-2889,98968467116
-6143,71031951904
-10976,3479290009
-4844,72328281403
-5943,72584056854
-13856,4389612526
-1739,05254888535
23731,1160135269
31437,5530834198
25037,8410511017
19802,9839773625
21804,662124157
37102,5197782516
42646,9067840576
17794,593102932
-10321,8249810934
-1857,78146696091
39508,2433137894
64986,7357711792
51889,6468887329
23825,813785404
10210,1801390648
25049,2123041153
41859,352189064
28712,5069217682
4953,27018818259
4889,81629276276
14630,1837215424
4464,49369907379
-12470,4544854164
-21726,5964680314
-27056,1412892342
-17135,6034135818
3344,42660665512
5500,38251876831
-5069,7870631218
5372,76199007034
29952,0529718399
32458,5966644287
15793,4381809235
632,002237558365
-11979,7476496696
-11753,2575111389
2050,49802827835
799,692802429199
-15648,2225374579
-14855,9980754852
278,609327316284
663,356496810913
-7378,51068973541
-8557,27895462513
-10710,2537865639
-7260,70090675354
5675,77542448044
2098,2939209938
-17336,9690572619
-24385,3359956741
-25877,2825069427
-35664,9451360703
-35080,4425215721
-21759,7205300331
-14868,7242746353
-7261,30624961853
6615,0073595047
6096,99629878998
-5686,64173942804
-1131,50409889221
12835,4338903427
11223,9835028648
4551,72435665131
5606,82038033009
14107,7184710503
33271,7089443207
40038,5750155449
13841,6983160973
-17464,2192154527
-11601,5506639481
30037,1296405792
58268,1030540466
47798,7309589386
21494,2774278522
9927,64738607407
26380,602388382
42521,219956398
27420,8872795105
1801,49333053827
-126,007811069489
9038,32713794708
88,2759809494019
-15237,6137061119
-23753,884716332
-34112,6324043274
-35022,1374311447
-18440,1882047653
-8322,85540866852
-9727,65943908691
-4945,42965364456
-3757,71869659424
-16254,2169919014
-21509,7959022522
-16688,3306204081
-20667,9600749016
-23603,5501794815
-14352,4529409409
-13166,8159246445
-21361,1675982475
-10107,6289482117
18610,9342441559
30864,7169513702
23490,642847538
13998,9524353147
1000,79420280457
-6034,48823738098
1042,70585918427
-3566,60865020752
-24210,3510249853
-29281,3667373657
-20170,9514322281
-21510,280807972
-22960,7431201935
-14026,2904483676
-8187,91687726974
-174,885542869568
13030,4301133156
7523,84707975388
-12834,3614318967
-21252,7209892273
-25938,1650476456
-37263,7933487892
-35596,8787255287
-22028,0847859383
-19490,6621665955
-19153,1516714096
-7348,45130252838
-3069,48248434067
-8644,59316962957
950,686518669128
18962,5426006317
18991,0827960968
10429,6290049553
8048,63850644231
12861,3161110878
29844,035987854
38608,7191305161
16376,6013669968
-12619,421187371
-6820,10530233383
31636,0286054611
55040,1563711166
42806,2746686935
18193,8933616877
7448,71712446213
23598,4002857208
41674,0227603912
29592,6483201981
5165,74252811074
2526,81812238693
9848,43232631683
-367,757389068604
-14906,6624860764
-21418,7969954312
-28845,038022995
-25995,0607776642
-8133,68751573563
-785,727606773376
-5769,67815074325
-606,965237140656
5295,76834201813
-4326,71129608154
-11633,5965056419
-10555,2607959211
-21528,5750727654
-36014,4136838913
-32020,7596802711
-24909,7981061935
-25986,6854014397
-13409,6428728104
11729,7381792068
20130,4095649719
13829,2580132484
10373,2009372711
2573,48689842224
-4288,35628032684
2100,46819591522
-284,526297569275
-19566,7806876302
-27569,8214483261
-24175,5784921646
-29064,8711633682
-28700,9518647194
-14600,2418634295
-3930,87567520142
7102,56451892853
22554,2478246689
19368,0596137047
49,8094380497932
-9831,84598684311
-17075,8747282028
-29896,3290481567
-27929,0001268387
-13293,1944402456
-12069,7775325775
-16523,3672857285
-8817,76247024536
-5650,08215522766
-11271,4836164117
-1490,03539419174
17298,1773481369
18981,8214740753
12966,1665282249
12499,893585071
15504,8982601166
28511,9464960098
36632,772898674
16291,5188574791
-12347,3114131391
-7825,1389541626
30730,077703476
56635,1580266953
46751,6486802101
23152,0179163516
12755,8298454285
28723,0569496155
46165,9832468033
33160,8791761398
6451,18189506233
3894,88637399673
20450,0946826935
19822,5903997421
2555,56717634201
-12202,7916122675
-17847,6052327156
-3291,55059623718
18587,9086837769
16279,3983469009
-335,054285317659
3328,20883655548
17930,6484661102
12489,006811142
-2895,25678825378
-12816,023172617
-23441,8311238289
-23518,0498800278
-8472,73789978027
-5574,57175540924
-16638,9871745408
-8455,51010131836
19416,0359716415
30341,1009497643
18961,8686008453
5708,88962799311
-5106,75655841827
-3822,58085536957
9162,15654468536
4870,16960430145
-16460,7781341672
-20774,421438694
-8678,78526115417
-8697,12132263184
-15208,9223828316
-13110,9384290576
-2912,46500253677
20202,7630739212
38679,9251179695
24430,394575119
-4312,62676918507
-9558,9405298233
-497,775447845459
-5258,07513999939
-13018,6646375656
-13894,4185471535
-18975,6523571014
-18061,1961956024
-5249,97694969177
-4532,88967895508
-15287,7998907566
-6054,6743516922
19595,9363050461
27374,0373425484
17414,5538582802
9087,57334458828
12439,7168002129
32368,7648267746
42931,8971610069
19412,1755461693
-13210,3408600092
-12230,6805171967
26928,2024555206
57539,451795578
47934,9103946686
19779,9666970372
8526,69199037552
28023,9992723465
47050,82259655
32214,1125779152
3179,55485570431
-1435,4549074173
11943,9305000305
7635,26635217667
-11158,9484272003
-24938,8079135716
-32965,7305111885
-25002,5587596893
-3352,63965511322
1446,62620162964
-10442,7494303286
-9986,48156023026
-4144,01303005219
-13919,9647502899
-23559,3236346245
-23155,3213806152
-26540,2047410011
-25146,9011287689
-12276,6273798943
-12670,6048989296
-26434,9015292227
-18474,3819146156
12936,2615566254
29259,421775341
20680,290307045
7498,05374342203
-4463,14168596268
-5046,27785539627
7328,14335775375
2835,5823674202
-20681,6488505602
-26806,3197484016
-12506,3110494614
-9031,1525554657
-14908,1685495377
-13515,8424735963
-4021,73193359375
18462,6390047073
37537,5074849129
24128,8680591583
-5205,98587749898
-10504,2311987877
1947,79093647003
-121,785895347595
-9884,66791582108
-12532,2756260186
-7798,69578647614
12727,0258331299
32898,129281044
23455,2283272743
978,357675775886
8613,25749731064
47327,2198982239
69210,8190336227
53521,7062525749
24540,9934838861
-10013,24295187
-39810,916100502
1514,62150192261
131280,803187847
254241,166365683
277746,37476778
189389,952608109
85282,7238960266
70277,4878416061
120339,124763668
138943,220422745
103977,52364254
88500,0507936478
114666,097409725
130855,481476545
97047,8956274986
25652,127863884
6155,36550998688
86612,8474469185
186363,730794489
195166,252718449
88327,989323616
-25855,7630262375
-42198,4006519318
3743,17676484585
20053,4702916145
-15928,1114997864
-22059,6226434708
59113,68851614
158902,602515578
173618,869070053
86289,5921134949
2310,22190475464
3062,07867860794
50984,7059235573
97389,6203517914
106828,234630585
84371,6553564072
100535,155977249
157547,692793727
173824,383119583
133470,133026123
108691,642932892
115612,097751617
113829,053553224
86091,4520664215
25777,6922035217
-18335,7125530243
18200,4961080551
95219,3962199688
117742,711872101
85659,7108001709
78069,852804184
98964,2026357651
104599,286111057
70783,7622051239
-1693,67652130127
-39768,7058296204
5217,76503944397
67506,9895750284
55030,650396347
-36457,6545886993
-97401,9649066925
-56288,1698541641
31097,7493752241
92645,1618719101
86068,4757728577
37422,8373374939
28188,3351755142
58461,4045148492
64397,2623119354
60776,1032352448
95032,8941230774
126545,657938004
128304,601837426
145208,091175079
164183,420162201
138968,70844841
107291,24282074
100920,40392065
82904,6917800903
66888,9759292603
90925,2533931732
109695,367274284
94102,5361754
58657,6514320374
-2787,24254417419
-47306,0885810852
-21140,894288063
36483,7496054173
69314,0450849533
57388,6971588135
-22458,7613754272
-147161,902666092
-234108,607649654
-222670,889801979
-122517,659322739
-18930,051361084
3699,82954406738
-46066,9867224991
-93814,9172725677
-94868,117017746
-81221,531167984
-89884,6522932053
-104748,977926075
-97002,9808340073
-71967,4665184021
-77402,1513023376
-135846,860267639
-201876,561306244
-212904,840106964
-155239,397129059
-85131,9877929688
-52203,6319999695
-47242,214478597
-42046,3716268539
-38158,523645401
-72549,9418411255
-148220,24552536
-206578,120200127
-190628,507410049
-113157,5271492
-47430,4719057083
-29796,8611516953
-33163,2445834279
-23951,2149806023
3349,08455944061
8061,67796039581
-46120,6937880516
-106831,086738944
-96480,2353563309
-36018,9080190659
97,1357011795044
19155,3366456032
86619,167062223
174648,333781242
167180,777381897
52752,56985569
-50161,1692738533
-83974,7554025054
-93514,6670389175
-86545,4006319046
-24405,9058942795
54973,1455922127
90954,4393344298
74845,2110471725
12461,0771565437
-34674,6414217949
2547,98936891556
79315,985158056
88612,2287635803
10213,8095617294
-63766,6509981155
-83464,2622976303
-89849,5842437744
-126423,592024803
-176664,31863308
-151196,486515045
-23641,8998570442
103044,581222296
113643,040682316
-4369,32929039001
-130635,460651398
-162410,285542011
-125037,071353793
-83496,8216323853
-75964,0067796707
-66440,4978237152
5067,8353266716
96722,1383397579
112284,574647903
51158,9317884445
3172,43476104736
-7642,59086751938
-13829,0908851624
-35682,6192388535
-81483,8736944199
-95039,147195816
-28033,5512318611
56853,7131085396
62133,8020563126
-6526,44392776489
-47961,8597450256
-30707,5574922562
611,974957942963
14113,0431480408
-12521,2567749023
-42560,644449234
-14169,8693342209
40280,3988469839
47950,6848430634
32517,487033844
44193,2283821106
22629,1969137192
-66395,9691426754
-127385,116579056
-78207,541097641
59458,6613941193
201943,038909912
275341,816755533
257510,058156013
173702,960342407
74139,378818512
6186,71292686462
-13918,7700960636
-3583,32180690765
7285,07514762878
-18102,1802139282
-112880,462581635
-242998,54642719
-298768,472040176
-229581,071949005
-107808,271064758
-13752,3330984116
32598,1239124089
38894,9657258987
3787,17809677124
-89667,1287593842
-220565,47465229
-320855,157967389
-334176,773322105
-254597,680354118
-143028,238622665
-69593,4768238068
-45351,6357510686
-43487,2838659286
-58018,8320579529
-108706,333605766
-180457,243041515
-226178,158322155
-212040,83291626
-147602,28575325
-94378,5650491714
-89335,88555336
-104268,89378649
-98057,8039021492
-68291,6808052063
-57014,0453195572
-84692,7793722153
-123182,957950771
-140399,690974474
-124863,722089767
-105151,039365768
-117633,333069801
-147142,946740866
-148690,779150486
-110462,411056519
-73092,5305242538
-66549,2771668434
-77412,8898556828
-87418,3114020824
-85198,6152629852
-84888,350001812
-114140,321774006
-155517,870936215
-162119,159184456
-128806,795345783
-96104,6063923836
-80233,9160835743
-70074,2629858106
-58055,9585623741
-41575,0192809105
-44930,305129528
-86675,7722582817
-133034,012056649
-136808,487640142
-101814,219863892
-72071,5499720573
-61163,2207126617
-57901,8116584197
-55513,7495856285
-46130,244641304
-46233,2744913101
-76401,643964529
-112041,75689593
-108655,30469799
-59872,3062310219
-13763,4166612625
-8306,62915730476
-22640,5614343584
-15917,7608304024
12139,1506471634
15123,7495150566
-23333,6204752922
-63827,7225128114
-66015,3852028847
-24329,9227137566
17109,6769752502
10910,3693549633
-25286,1771498322
-33968,4201049805
-2116,02581834793
19791,621301651
2308,08907938004
-26186,9140385091
-30907,6414408684
-21030,2845711708
-32967,8962697983
-63781,8320074081
-88689,9188659787
-96215,2596435547
-75149,1195445061
-40676,6413426399
-28934,8698186874
-36218,6048289239
-28009,3775763512
-6206,42933559418
-5663,7240319252
-27089,386382103
-47296,1558280885
-60514,449763298
-57004,5228562355
-37382,9214076996
-31588,070502758
-43086,94025442
-41441,0157284737
-27395,15614748
-27296,3635988235
-34827,5800614357
-34777,7498491108
-39753,5953702927
-48351,111354351
-43731,3772201538
-40551,6821208
-50359,5318977237
-54885,5768270493
-56348,0582575798
-64142,5613517761
-58635,55834198
-37274,6412252188
-26635,7113723755
-25714,5432777405
-17566,5939159393
-15566,8281412125
-25806,6459664106
-34293,2203316689
-45538,0315308571
-56162,4994573593
-44871,2634096146
-21260,0619471371
-19290,2193040848
-37107,2826018333
-43206,4065656662
-36749,79220438
-31002,2270016223
-16922,9210004807
-510,456175327301
471,755071163177
-104,720173835754
8086,27294003963
15784,2054891586
28064,078130722
38015,3314900398
22779,9703507423
-4109,26691973954
-2561,37353372574
32417,1103601456
58499,5213098526
52290,8630461693
33365,3372951746
24558,9958314896
38832,0673928261
57775,5189118385
49326,1644487381
25080,1677009375
18866,3034653664
24090,387275219
15086,2092599869
2437,92688035965
-1763,18132408708
-6037,48748207092
-766,312488555908
18355,9364118576
25955,646253109
20025,2471252233
28740,8413085938
47674,8544502258
47277,9881753922
33384,5432462692
23575,321878897
12558,0904660225
8566,1164598465
20078,8386135101
22719,4589567184
10209,8911412135
13072,3088583946
35118,008043766
44655,0737051964
37262,853448391
30636,4743098021
24785,9628767967
26822,4262309074
39876,6168951988
37767,9492063522
18110,1041558124
13007,3736224175
22934,3285937309
21501,8410243988
15117,2975087166
18098,7926560715
26777,5611948967
45820,3764352798
64198,2398281097
54770,5803070068
29896,1779744029
25266,1055526733
34067,8798570633
29756,56133461
22257,8031373024
22413,8304614909
26513,5267348289
41382,6146230698
53496,1364803314
39106,4333529472
15870,3893420622
22631,6802244186
55686,0483264923
71929,3105940819
60047,4440054893
39875,7893064953
21564,4770746231
19523,8933444023
32733,3679876328
32707,2827973366
21029,8415108323
24253,9059286118
32637,3678326607
24925,9227309227
16265,0467648506
16301,0120520741
9127,58236408234
2502,93527412415
12361,5566053391
20843,8274378777
19248,41127792
28983,3727502823
48217,2188396454
51285,2162570953
42541,5868577957
39377,9863812923
46175,0281653404
66474,7931389809
79062,0064954758
58034,6736903191
24126,5329774022
19577,6332221031
45699,0161552429
61696,4149980545
52996,5481462479
38125,6767273843
27369,2367773056
32160,528324604
47412,331199646
42841,4242682457
21951,5929121673
14351,4564452171
13342,3725676537
2353,60891151428
-2073,04005908966
5070,04597257078
2204,59998750687
-5274,47528934479
2279,02098989487
9771,94570541382
7416,72495931387
11811,8941774368
15002,7845077515
5408,41652393341
3392,52605962753
13157,3116317838
11007,3535070419
1450,33018445969
6053,43289756775
13149,0812249184
11875,6644556373
11143,9014344215
4156,36491966248
-7543,32497262955
-1967,17958211899
14971,8024914861
12663,9231891632
-5654,84924936295
-9987,7313079834
-2332,18142557144
3626,25163669884
17285,3719491959
31699,0926184654
29379,7201275826
25854,4513988495
32414,0474069417
28192,730340004
11147,7953901291
5584,85144758224
8002,57758998871
3579,00690792501
2645,84620571136
2167,65161848068
-7102,16034078598
-4998,47558307648
13576,063300848
22818,8646473885
22071,439406395
29253,5872282982
32148,6702728271
22238,0195851251
16084,3710665703
9690,70771074295
-3250,42613172531
-1977,24661493301
14304,4784862548
21383,7387018204
23561,3473520279
34083,6633443832
36665,0739450455
28523,4108839333
32403,7812590599
42733,1975226402
38835,338265419
32502,3472733498
33794,1961430907
35419,9199800491
44225,7168140411
53075,7352561951
39021,8072519302
15803,6006647944
21492,7732553482
57268,0671958923
80277,7873859406
70354,4699044228
47695,8053652495
32267,9785342216
38397,3047275543
53962,4299869537
47196,3588552475
25548,6594981998
21443,6258292198
28196,6112313271
20532,4598536491
9033,09330415726
5212,38398869336
-3810,44763469696
-10049,5833587646
2494,72335004807
15688,7094283104
17953,8597033173
21128,3202185631
17920,2675170898
3233,24693584442
-904,265678882599
7385,80947586056
597,748270511627
-22210,0336713791
-30275,9895792007
-19292,1581115723
-7338,04678280279
7506,17479372025
19344,586956501
14102,6927366257
9527,53263521194
18454,1462871283
19464,9887318611
6977,66780853271
3204,94247198105
5722,81747293472
-834,247869335115
-8086,51380729675
-16719,9972467422
-29492,8194651604
-24208,2798056602
3,83838855475187
12907,2261924744
11789,1948757172
17137,3557100296
21275,3843631744
13911,2180747241
2006,54957818985
-17018,5365900993
-32806,2631387711
-22549,764875412
1816,55997760594
5179,22117614746
-12003,1185650826
-17829,5476412773
-9391,15105199814
-758,935218453407
12295,0788898468
20816,1607265472
13782,2477750778
11457,8932027817
20561,4588086009
22416,8276457787
22074,7943425179
28713,9064040184
23722,337498188
8130,76300525665
12830,7373576164
36242,0965719223
45378,5541930199
38257,4137401581
31098,6655169725
21325,765431881
17085,3367958069
26275,1646046638
26071,6754255295
12052,8560027927
7789,28044271469
7899,83960771561
-1592,00950098038
-4066,1453204155
4335,4759208709
-116,925864219666
-14710,973218441
-13403,8524456024
-1559,18039131165
4930,05935618281
12341,2935357094
14356,3043341637
2978,86480712891
-678,585343837738
9259,48614375293
7979,88064956665
-4824,39438152313
-5095,4738035202
1740,92068862915
1106,4249997586
7198,51356315613
21015,7334194183
21761,3124346733
16573,6131863594
20022,9277915657
19806,5719079971
16762,1019620895
23586,0103030205
23547,8639969826
8709,97872203588
1489,69156551361
457,661788463593
-8926,92294025421
-10602,3097715378
2432,11700090766
11814,3133311272
20421,4783582687
34415,9217882156
33196,1472783089
17062,8036099672
13676,2337903976
18772,3580346107
12583,6741480827
7690,28675222397
11700,7003123462
6605,95921516418
-1924,71932554245
3519,4255156517
6907,26563644409
18,553996860981
8074,30533313751
32326,2397727966
42109,5305624008
34384,8303632736
27524,5532788336
31329,1384072304
50667,3909282684
63568,55265522
44653,3182506561
13723,7574594319
11178,7308306694
44781,0891866684
72857,6319365501
63411,3330907822
35311,0695642233
20615,6805500984
34853,0612425804
55433,4505438805
48115,9281611443
24760,8505966067
16233,007627964
13343,4028449059
-3393,09560728073
-17622,7747831345
-19908,710161984
-28031,6463851929
-36887,1898050308
-26885,8870167732
-11678,6661930084
-5565,03466443717
6439,19798660278
23191,0242848396
22885,2283582687
12083,7655725479
7532,22187273204
-973,378106594086
-12869,2778081894
-11067,4043207169
-7983,76096582413
-17033,0392757058
-18402,1309270859
-9407,58087825775
-10414,9076867104
-12919,3720474243
-3803,24097421765
1948,03888940811
3702,48456525803
12591,4510560036
10794,9889655113
-8045,7080951184
-19930,4761033058
-25235,3115949631
-34752,7564101219
-31878,3728990555
-14566,0325842798
-8405,45623922348
-12180,0844454765
-6296,47603988647
-1271,77207612991
-5997,34572115541
-5723,80601882935
-5232,47329902649
-14036,2062187195
-13945,639298439
-2009,99433851242
-3953,29591083527
-18896,5254817009
-21907,0658025742
-17408,8713812828
-17922,6793189943
-8377,61482095718
12450,6326098442
20231,4684281349
16034,4190893173
15672,4276301861
22615,3870410919
40722,8015789986
52962,8921384811
34445,4502515793
3634,67295438051
-3043,76725530624
6340,37316465378
3649,91068887711
-3233,33488512039
-4767,47501027584
-14741,0432238579
-25062,1791014671
-17875,7407717705
-8469,00682210922
-6671,4112893641
905,276432514191
5497,16244316101
-4462,99989652634
-9705,89205884933
-4660,63511368632
-12320,7386617661
-30319,9438095093
-32822,7821578979
-24482,4598155022
-20106,6429738253
-8199,04423141479
8656,3557100296
9543,8383975029
3425,76517963409
5330,96754591912
11221,3877477646
25282,3015890121
38991,4878587723
26270,582110405
-3071,70417123288
-9228,09418392181
15854,2772493362
35139,431312561
28651,7993607521
13721,4603827074
5643,17271327972
15875,5316591263
35061,9785981178
31854,3167490959
10451,466695413
-928,499366760254
-8191,45002126694
-23901,0023303032
-30430,2971930504
-24024,4448497295
-28919,2345118523
-45038,9674501419
-45352,8155455589
-30442,6953864098
-18271,3421967924
-6725,34730291367
-1930,25527429581
-12745,7659811974
-18279,1139349937
-9364,53396396339
-10209,8992385864
-27548,0346722603
-35763,3184814453
-28984,5478820801
-23911,673295483
-20657,5447487831
-23334,273873806
-35316,7923436165
-33772,9476938248
-14218,510836646
-4116,11974048615
-7419,20321702957
-4249,17530107498
-436,761642456055
-6382,03799897432
-12816,0506219864
-22994,7254881859
-36385,2723937035
-31324,9445695877
-10955,0343675911
-4973,39462423325
-12821,441617012
-11113,6297917366
-5593,22946500778
-6642,93978744745
-1883,22912931442
4311,87619018555
-741,498249053955
-1757,17182207108
7053,27420753241
8795,46515846252
8714,57900619507
14287,3345527649
6593,75612926483
-11795,9873009622
-7596,87017202377
21453,1479969025
38844,7101445198
33009,7118368149
21260,5544819832
9001,71540307999
6495,53337097168
18046,9346132278
18034,2661447525
2627,97493779659
-2443,0369977951
-1544,68427467346
-11194,5197205544
-16386,4010043144
-10638,6597571373
-14909,8258728981
-27058,9530682564
-23842,5711021423
-11836,4795484543
-6511,17384004593
-7434,11683750153
-20309,1860103607
-36327,4602665901
-31598,1686697006
-13980,1406546235
-14863,1556811333
-34221,8641881943
-40557,6495904922
-28515,3001995087
-14829,0345531255
3101,92235994339
20330,906065464
19075,884472847
11503,5507831573
13240,6295539737
10126,4193530083
629,854174613953
1875,3446688652
3415,95217227936
-7593,5602786541
-11676,6384100914
-4751,82235193253
-6118,37440538406
-8245,24205350876
1092,01288858056
11802,092795372
25756,1542472839
41706,1329631805
35321,1550483704
10235,2609496713
808,267529010773
8057,89997959137
6468,71445178986
597,15139913559
2552,62898021936
10766,7528243065
30304,8885726929
47390,8840465546
36915,6939005852
13330,954656601
15538,43699646
47654,9068698883
68742,5224885941
56215,1789021492
32921,701741308
30920,6171402931
55179,2546629906
68249,4362001419
46362,6426181793
16691,6813282967
16348,9865670204
50709,8790392876
78476,9198141098
63878,3801822662
26087,9215295315
7766,37372875214
26353,2164645195
49504,1823077202
42145,5515384674
18850,5766322911
14890,5378675461
32600,0100855827
36639,9263834953
14360,561234951
-11530,9829869866
-20163,2135126591
-1511,79624700546
23664,1777510643
22708,3243689537
4309,94281670451
3333,90100646019
23582,034011364
31011,7702951431
14173,4864521027
-6499,87177351117
-24360,8235318661
-30732,9255657196
-16448,061372757
-6473,42653465271
-14433,0833319947
-18691,0208542347
-18860,766831398
-28810,1914811134
-32884,0778417587
-22829,8934899867
-16791,4621880054
-12786,1999454498
-1542,06367635727
-660,493948459625
-13203,8386010528
-16111,4839882851
-11960,9303436279
-15987,564245224
-14928,7157468796
-3820,4851260744
-3297,96967577934
-10259,3914957047
-9226,11889886856
-13386,7350625992
-26977,7080188934
-23033,8428750038
5060,08033323288
26119,1546931267
26614,2500443459
21583,514940884
11338,1695337296
968,116357803345
2915,59632778168
-1179,70183515549
-20696,5609191228
-29228,6757102013
-22932,3832817078
-23477,505065918
-24004,0762195587
-13177,7158416957
-6776,29792881012
-4913,67439413071
4692,88323640823
5123,94692516327
-10499,5086929947
-18626,7250547409
-20577,5831050873
-30331,3121094704
-31773,5822105408
-19112,7482882738
-13060,6837925911
-10603,7583150864
1310,34828472137
6318,34463500977
-1125,29814839363
2389,47727680206
16000,0646204948
15885,5605020523
7548,15080595016
5246,71686604619
7720,21735811234
20618,6876997948
33081,2146172523
20544,4666018486
-3576,76898634434
-1705,00839424133
27202,067492485
43682,8606367111
32993,7019133568
14248,7674201727
-2840,01158571243
-5984,91122770309
7362,99883794785
8893,55079841614
-5312,86049845815
-7944,35275030136
-3419,27593135834
-11816,7000222206
-19547,9635844231
-17194,3143699467
-23856,0150094032
-36991,1126451492
-32756,5950942039
-18653,2069487572
-11366,1449150443
-6795,77103567123
-11617,0041003227
-26902,3647069931
-28168,4199991226
-14276,8545788229
-15482,2468233109
-38528,7504134178
-52101,416015625
-43030,7902741432
-29211,3689302951
-14155,6713132858
-4273,14104175568
-11430,6435031891
-15627,9932923317
-3540,26455500722
1909,17026758194
-7842,27741670609
-10899,8221487999
-7093,20629549026
-12214,1597699523
-18435,0921030045
-25871,9715924263
-39404,1614732742
-36926,9209299088
-14223,6039955318
110,858012199402
2566,54998397827
11356,3638758659
16384,7122240067
8081,35418131948
75,0525751113892
-10304,6030621529
-24872,9894790649
-21900,1248493195
-3291,11279404163
-139,866139888763
-13255,2179718018
-15671,166115284
-9553,14188814163
-7361,41642892361
3127,64100790024
17889,5905823708
17145,7960958481
12710,8803610802
17035,6399914026
18460,128305912
21585,4468078613
29899,0272340775
20967,6670479774
-1636,69016581774
-1318,46452140808
26815,6923489571
45019,370013237
38520,942442894
25654,7064628601
15209,1543807983
17968,3580355644
33374,0421257019
32076,9350543022
13220,1553114653
6444,03249597549
7124,50364875793
-3940,19507026672
-11573,8385162354
-7466,77292025089
-11116,2822957039
-17266,9361438751
-7142,70468521118
3582,83786249161
3813,30635052919
7878,40625047684
9108,12461423874
-2197,77268648148
-6168,27861881256
1433,07770785689
-4888,60817146301
-23804,1532225609
-27496,6497197151
-18586,2727026939
-12339,0496895909
2200,23717212677
23179,089410305
27282,0402436256
20397,6219525337
20028,3830703199
15206,3810458183
5191,66182899475
6927,26728487015
7757,29135990143
-5032,22196471691
-11153,9201369286
-9333,12531661987
-16386,8315458298
-17893,0271377563
-3514,95664286613
7791,69021749496
16055,2638630867
29205,0690031052
26714,2520136833
7004,80176603794
-1997,78246831894
-3819,94538021088
-13993,8659982681
-15572,2331771851
-3586,23183679581
-2010,07194423676
-7796,92805576324
-1027,3485584259
5518,3946056366
2229,6501109302
11246,9540147781
35588,6115069389
45758,6882915497
36752,9204530716
28304,1916600168
30545,8054800034
48798,0924220085
63729,1621522903
46663,3409457207
13622,2125094533
7299,60753726959
36376,4489893913
59551,2462425232
50113,0929350853
27407,2429442406
15245,5239071846
27925,7759666443
49293,963183403
43601,4046978951
18898,9276205301
11460,4041376114
16350,7996368408
6351,16325569153
-7881,48538684845
-12371,4410057068
-20325,1421942711
-24671,3240919113
-9786,56970787048
4050,70404195786
5189,74300095439
13704,9692168236
25357,1740736961
18751,1181321144
7666,88880443573
6845,66734150052
-1781,37286663055
-17673,0238075256
-17480,2052087784
-11466,2508077621
-16393,7593904436
-11043,453789711
11853,9067978859
23013,7324528694
18732,0702047348
18283,5130874217
16179,0457496643
14200,0335502625
23972,3137722015
23727,7579989433
2718,24118998647
-7612,27896785736
907,694070339203
1433,50645160675
-2966,90550756454
4358,2822239399
16339,5523428917
35803,3511343002
58068,2423410416
52129,2783737183
23373,7887301445
11067,7698698044
13198,5709629059
4931,35759067535
-1018,27157926559
5328,05319106579
-2584,307949543
-49065,3655481339
-130439,873890877
-220261,322085381
-287446,182037055
-312933,988330841
-297538,949954033
-257894,844210625
-214767,998986244
-182688,853576541
-165622,161151886
-152274,366605759
-78528,7732467651
108735,090167999
322673,986232638
405302,888935804
305940,136305809
146017,11050415
65783,8952875137
69190,9173401594
76539,6456253529
44324,4547452927
32737,2980790138
97825,6011676788
180321,894686162
191951,916439295
120521,352851868
62506,3461894989
101839,609529018
188407,406831563
214126,001592159
129485,104380608
15343,0137577057
-11662,7627062798
22500,8859111965
5722,8665971756
-63829,0179128647
-67490,2839298248
38613,2106580734
161881,980180755
193901,489733219
96491,3587589264
-47148,0927400589
-92359,3427362442
-15550,1260107532
60985,27084589
49471,002863884
12866,2338924408
47191,2756814957
130684,984488204
168985,0139575
112120,422979355
31024,925775528
29460,1298007965
88687,1294548661
119283,038960457
74341,5419912338
10428,773765564
24029,4594049454
102866,618814528
149855,494576454
122057,004968643
91037,7114973068
114997,167338371
145405,167919815
113953,864487648
18625,7084350586
-45326,5117816925
-4971,09802818298
81808,9734083414
110965,769202232
47216,6040496826
-18769,3131389618
6943,61643600464
77363,9231020212
88046,4907417297
17290,026927948
-38953,1548500061
-6101,3070602417
63184,1966570616
76704,6100206375
31343,2022228241
19132,5831489563
71541,1788673401
135497,41023922
189371,545389175
206727,170606613
167948,455101013
135779,07426548
140389,505334377
123316,06620121
68913,7444286346
45088,4715900421
51668,6752958298
13818,4033113718
-42867,693570137
-32475,7413463593
31694,9413356781
78376,2921772003
90302,442098856
95706,7486438751
105004,37534523
81151,2809410095
7034,89085483551
-68022,0778944492
-87671,9275846481
-55809,2372016907
-35031,2712078094
-56773,5095815659
-91625,9171094894
-97841,1853713989
-59030,6274318695
-15333,7448978424
-8691,07663726807
-21027,9738733768
-13631,9485292435
15072,1881532669
15521,0631351471
-41705,9086971283
-117713,272983313
-165765,996905327
-156734,745518684
-98038,8818044662
-46834,5275144577
-31225,6753432751
-25806,1762824059
-18618,2078437805
-38532,68612957
-91480,5709848404
-138362,010405064
-148646,345890522
-111435,251226425
-54167,5808429718
-29810,9129714966
-41379,0370743275
-50142,2134594917
-52746,6835775375
-76307,89939785
-109801,088839531
-127008,72729969
-122010,553651333
-90379,8954057693
-55217,4203281403
-54387,4797110558
-75274,736964941
-72715,807580471
-44568,9252147675
-33126,8347158432
-48793,4676976204
-68139,4673155546
-75615,8348903656
-62307,072470665
-49823,6600036621
-70207,978085041
-103983,029949427
-103147,425393581
-55712,9260396957
-9174,12257099152
-6334,81939792633
-31341,7195187211
-49291,7788262367
-41128,2101888657
-28783,0226402283
-49306,2623305321
-87772,9338510633
-97767,1476716995
-75074,5745129585
-59754,0067200661
-63163,4900712967
-68129,852324307
-73167,2473669052
-69705,2334136963
-57225,5554852486
-65516,7068657875
-92580,3213905096
-98965,042596817
-83302,9643406868
-76282,5789260864
-74738,8312206268
-67078,3650672138
-64130,7031116486
-59402,5277476311
-49165,5204029083
-59204,6300301552
-85890,2005567104
-86371,7236962318
-48371,0978989601
-14337,2656946182
-12963,0644273758
-26531,7267543823
-41822,8461041451
-46779,4872694016
-36945,6598882675
-43094,025197506
-71913,0936282873
-84296,9280114174
-52776,7980642319
-7620,09940433502
2755,10586977005
-15188,4240792096
-19055,0992903709
12216,5147628784
45111,3725299835
32902,6794066429
-13208,5564833283
-42806,9705162048
-32671,0385665894
-17358,6477499008
-30339,3559274673
-53695,6791026592
-63640,6665811539
-46927,5953645706
-13452,0228919983
-5292,45707607269
-29594,1967902184
-46650,04926157
-40153,2540807724
-39346,8606901169
-55441,3485369682
-67022,442705512
-62872,546128273
-36875,0293011665
-4990,79534435272
-4638,40441036224
-29573,1095118523
-37907,8073134422
-27322,7595820427
-30245,6600875854
-45131,4763441086
-53712,3414884806
-57215,9596760273
-47346,4156079292
-27113,3291063309
-27346,9124932289
-45050,2697064877
-39576,7039964199
-1945,00089454651
25109,1354827881
16075,0579342842
-6711,02972710133
-12386,7665965557
9271,38599443436
24510,4223890305
2151,91505527496
-31995,4970407486
-33229,6965045929
6564,52914190292
41419,1118688583
31998,3764572144
-2355,22230684757
-19793,3266525269
-1717,48222446442
20117,480714798
8080,1768450737
-20972,6132105589
-24489,1352376938
5739,01402854919
26608,5684022903
9608,86149501801
-22575,1341838241
-41340,0143284798
-29525,8913497925
-2355,24228191376
2,67672872543335
-19605,0740169883
-22253,0095438957
-5943,37368965149
-5130,95879936218
-21982,4064202309
-34836,6546948254
-48856,3999490738
-63411,1305103302
-59070,9602041245
-49180,1013879776
-53843,9241645932
-53318,2159004211
-39872,5396800041
-37563,7740516663
-42313,378619194
-35551,5093193948
-27646,9659128189
-19477,9289698601
-3672,95492267609
-4471,35688257217
-28437,154589057
-43115,4539651871
-44630,946911335
-51869,0931358337
-51699,2190437317
-35474,5982965827
-24249,8074617386
-16831,0572013855
-3052,32432937622
-3176,74781608582
-19779,4764474034
-22489,6071352959
-10895,3166193962
-10068,3826198578
-13189,8155355453
-8349,6254426837
-14150,4842014313
-30358,7333993912
-32659,0894861221
-28710,1814870834
-33489,7356376648
-27868,0366563797
-7001,04598617554
2115,39101028442
-992,311479568481
1010,66231018305
-2484,4738574028
-12958,3934249878
-11621,0157413483
-10287,0454921722
-23020,3374731541
-30736,1139392853
-33546,0284414291
-44655,6109428406
-44320,4663381577
-25328,168720603
-15774,9017319679
-18612,1983661652
-11594,5574769974
-3115,66852140427
-6125,85538297892
-8526,91515207291
-14378,9059257507
-29212,0741243362
-29739,1291379929
-13539,5424451232
-11288,7840337753
-23836,7488098145
-23418,1714420319
-14156,5994081497
-11133,4976469874
-512,43881893158
16671,1690292358
17756,2993221283
11150,9650597572
12473,2754015923
14299,4011025429
22427,3197154999
36432,7134094238
28502,5894584656
3267,76174712181
2844,72228908539
36149,3739442825
60286,6731500626
51650,3780574799
31649,2342096567
19273,5425305367
28039,3391389847
48795,6669626236
45694,9015359879
21754,2535233498
14736,1881923676
23158,3848361969
16949,6516666412
3109,20067977905
-1423,0939091444
-11516,5890235901
-28556,0036363602
-27211,2211933136
-11250,6591153145
-2337,33906555176
-832,353125572205
-11545,9976129532
-31752,6748085022
-32587,2381410599
-12865,6118497252
-6111,91022777557
-15528,1210269928
-13582,2033500671
-3305,76621103287
-327,454995214939
6174,3046913147
12882,4873094559
5472,68646907806
2174,77892351151
13196,7811744809
12864,9003500938
-3484,76926994324
-8320,59037399292
-1960,78389024734
-1881,48950654268
4366,83039808273
20133,690867424
23344,0576610565
19580,0763678551
25833,9006884694
27321,4472312927
19191,401134491
20548,9187021255
21222,368803978
5958,57956391573
-5118,0796084404
-8655,36689376831
-18691,7348127365
-17729,0758466721
2171,16217660904
16201,9287452698
23265,0442905426
36271,8395595551
36909,3353404999
20550,392713666
15179,6333284378
18383,712553978
10320,8966341019
6213,68390893936
14843,9682408571
13534,8880662918
5392,46995449066
11400,9333438873
17300,9882011414
12072,1841792464
19767,8603329659
45042,3637304306
57070,2499256134
49224,2041068077
40739,8448722959
40805,6593089104
56501,5249242783
71413,2194824219
55170,5078458786
22378,6058042049
17304,8976202011
52799,7726278305
86148,2390317917
79386,9461150169
50155,0638337731
31884,4958806038
43832,330655098
67335,2036457062
62305,6216526031
35390,9402051568
25014,6394367218
28553,9393825531
17005,0373601913
-587,986266136169
-7561,55742359161
-14187,2702922821
-13573,6256608963
5485,89932155609
18604,8863253593
15720,5924684405
21330,9413137436
33224,7703418732
27398,6717243195
14716,7633810043
11249,6189121604
1741,44451856613
-11565,0381708145
-7852,51758003235
-1860,37136363983
-8682,85387021303
-3679,6825928688
21330,3059492111
35279,5896844864
30038,2464165688
25349,1269343495
18703,8531508446
11494,1039009094
17279,9321489334
16951,898897171
-3040,95770376921
-15534,2520675659
-13461,4373970032
-17777,8634653091
-19581,9125261307
-6180,65383642912
4342,52986240387
10908,3845977783
24730,0803098679
25185,0495328903
5957,26840102673
-5036,38343858719
-8341,53896141052
-19306,3846902847
-20711,2028923035
-6567,64516013861
-3643,23413848877
-12270,2459058762
-8472,26252269745
-590,675217628479
-1583,43551939726
6533,36972332001
23881,0862503052
25810,8245153427
18341,1964178085
18646,2718474269
24260,3729972839
39189,292924881
52747,3796682358
36977,8256998062
4643,20714098215
-84,0235462188721
35389,2164421082
68722,9656820297
64417,9520635605
39994,7175352573
27520,6306176186
43265,8010225296
63995,3607187271
52483,748298645
21559,5664356947
11865,1182932854
20395,8284139633
14180,6815643311
-2491,47782039642
-12473,6846143603
-24023,1200575829
-29659,297451973
-14301,759888649
985,416911125183
2779,02701109648
9668,97076511383
17328,0246701241
7112,31590843201
-4334,64442586899
-3667,42172831297
-10545,1199913025
-22954,3158884048
-18732,0562095642
-10353,2927908897
-12669,1697327495
-4968,91427230835
18082,9171886444
28129,7316055298
21766,4601554871
18308,715516746
10785,0805630684
-2599,06157398224
-3882,21887016296
-4312,28951072693
-19014,9703409374
-26409,5267472267
-20666,8992967606
-22983,0296192169
-24576,7863349915
-10895,0771399736
609,695802211761
7237,42682933807
20944,6538410187
22936,1268057823
4888,44216799736
-9568,11767101288
-20390,5117816925
-35987,253200531
-35483,3305330276
-16355,332179606
-9812,58843708038
-18615,5885190964
-17028,1538105011
-9950,33942842484
-11121,9609538913
-5843,71853923798
4016,04860401154
84,9854192733765
-3849,87406206131
3807,86398601532
6961,89857530594
9425,23378181458
19056,8501148224
13423,5141625404
-7952,04441297054
-7789,15952110291
24112,5031757355
48383,7923316956
42759,0938158035
26473,6937998533
14750,0258140564
20628,322804451
39250,2320070267
36200,5367712975
11335,9856649041
1699,01909780502
7770,88338279724
1898,87946605682
-8361,70355367661
-9586,38477170467
-18677,9906005859
-34173,1218261719
-30789,681183815
-15781,5468893051
-8570,79920202494
-5825,5716547966
-13443,7289066315
-31262,2029476166
-32444,8151378632
-16280,7558303475
-15609,2841186523
-33789,6447896957
-39202,2772350311
-28612,4299178123
-20155,1306640506
-6354,61401224136
10348,166217804
9436,35379314423
3100,62074995041
8002,58990633488
5369,17977237701
-12488,5586891174
-20401,9637346268
-16348,4816594124
-19085,2035092115
-19837,9263520241
-17658,8882875443
-26287,1827735901
-27804,9824967384
-10142,4289493561
2775,92138624191
6245,04308891296
16789,32143116
21100,531185627
8986,45808005333
-392,813007354736
-8898,23498344421
-24850,4341697693
-25705,1282486916
-7279,55189454556
-663,580523967743
-9636,44297218323
-8803,61137962341
-2054,17095422745
-2951,90424084663
2470,59358167648
12595,9089536667
8657,63990688324
3903,7252664566
11257,6186568141
16087,5096549988
21500,7797136307
32255,3902196884
24474,5441174507
119,214350402355
-1069,0316028595
31234,5344924927
56250,5914382935
50366,4553155899
33246,2345746756
19689,5023841858
22279,8078784943
39092,5067873001
36441,9832253456
11339,7982250452
2513,86548900604
16887,7717142105
20769,0151977539
9110,71886253357
968,974588871002
-6023,19299125671
-5760,35611629486
11297,391374588
19819,8438324928
9551,76537078619
5377,51745080948
4750,79832935333
-9042,70891571045
-17661,0238056183
-11305,525894165
-11772,9742422104
-16039,0741682053
-5946,95686435699
2154,55108785629
-2045,76510089636
5751,19129657745
28987,889790535
37986,4851560593
29074,7725577354
21267,7494623661
8636,28783845901
-8090,34220790863
-9084,25673007965
-6202,43081474304
-16388,2450146675
-18447,5346298218
-5441,01405715942
-2353,85956764221
-6582,26648330688
-692,280491530895
5004,78684425354
10250,3253631592
24011,2531671524
23475,3573904037
1868,75018203259
-10321,2242846489
-11757,4770298004
-21541,9110040665
-25164,2628259659
-12844,5985676646
-6057,64385843277
-3801,23878955841
8957,03752422333
14866,4007248878
5648,88734024763
6728,74315595627
19804,7845191956
19731,5561256409
11811,7338452339
11518,1070902944
4846,54244852066
-7401,88296985626
-5831,17365074158
-3656,9360499382
-13702,6867573857
-11559,7959089279
9513,20888996124
19721,4350233078
14400,0839085579
12519,0205016732
19084,0913081169
38547,1755390167
56264,24858284
41793,5333981514
7342,77318930626
-2377,68887615204
24547,7172632217
47506,5521526337
39244,8056182861
18676,5419947505
4531,18606233597
10828,7711400986
32551,7929983139
35021,0019745827
16268,3330498934
4971,0964641571
-3300,34208202362
-21759,9683685303
-30530,2935204506
-24099,7037118673
-29717,4943761826
-48453,6158628464
-50339,1013565063
-35753,0552601814
-24221,3418661952
-8695,18198919296
8137,72383832932
6182,75672721863
-2300,03929710388
-388,759473562241
-5858,0129404068
-25604,2887158394
-34260,0429162979
-29674,9810891151
-31102,3641297817
-27059,9759521484
-10847,1261339188
-6038,30916404724
-10494,0040369034
-4591,77266174555
689,240585803986
-932,595238685608
6016,44622135162
9793,65865373611
-5919,26936489344
-16978,3220791817
-7629,8197183609
-2226,45497894287
-7664,57457304001
-4826,90280663967
327,428904056549
1467,12389278412
11840,9803438187
18026,6700201035
2624,53748714924
-13697,3858275414
-22378,5080633163
-36846,092051506
-42001,1724762917
-25756,8049765825
-9718,32024288177
2062,0828576088
19872,3949956894
23556,757856369
5764,92138838768
-4220,91955947876
-4102,022585392
-12875,0229930878
-17413,2398943901
-9064,95682191849
-9684,66946434975
-16817,8058543205
-10117,3558292389
-3102,76615047455
-6989,28831994534
2180,47222208977
31698,0173845291
49202,1643276215
41770,9802517891
28609,8324716091
22273,0147547722
32113,2731957436
45210,7220220566
30886,6697950363
-301,652998805046
-6101,82081651688
31933,0682997704
75965,4931993484
77530,3487529755
46434,4294601679
28432,2898652554
46735,8690490723
69172,7444314957
56384,6241750717
24752,3217276335
14580,7960138321
23853,3411111832
17243,9627799988
-5555,73541927338
-23509,3051115274
-34247,8165483475
-27353,8132362366
-2307,17074298859
9097,90573549271
2375,74260127544
8088,11021900177
24047,6253762245
20820,5864400864
4342,97485303879
-6413,70095795393
-22582,9195070267
-43473,0867872238
-44999,2866678238
-34839,082631588
-33232,8484475017
-25733,2177629471
-8127,66036939621
-4120,81023979187
-9213,94967556
-5373,9154099226
-4417,94296264648
-8400,19108867645
-2243,04576539993
-1881,40853881836
-19832,7121325731
-31150,2360272408
-31167,1040844917
-37230,0777931213
-36371,8114171028
-19211,9761345983
-6771,31920289993
260,515274047852
11927,0681743622
8020,70502662659
-14615,8688265681
-23693,4049983025
-17715,7080416679
-19815,2947635651
-20572,6096763611
-10777,074839592
-9545,2170214653
-13511,788230896
-5666,61250209808
-2077,90881681442
-11037,3037919402
-11494,6365532875
-7082,97076559067
-13715,4696960449
-15541,6831159592
-6339,31056147814
-10260,1584944725
-24287,7033014297
-23454,4865198135
-16866,71509552
-17216,8203502297
-5587,41209554672
19731,9386205673
29824,7534675598
22617,3228974342
17404,5705950856
18788,2598133087
32837,3114376068
47537,0909633636
32409,2025952339
-1557,83107310534
-9997,22808647156
17474,4034843445
40076,0825176239
33112,1990818977
15259,8983635902
849,828766345978
3022,87297916412
22095,7966957092
24361,7730975151
4496,92187833786
-5969,66885852814
-8838,04925632477
-23107,7911634445
-32244,2255411148
-26461,1107756495
-29337,409245491
-41675,8490180969
-37312,1345205307
-21657,2495656013
-13747,1315809488
-5228,03803396225
27,756462097168
-11618,4437494278
-19655,3128194809
-11307,6554585099
-11945,9635305405
-30656,4446249008
-39569,9042377472
-31323,4221177101
-25745,9022697806
-18248,2597794533
-6086,02507972717
-7511,23808765411
-12639,3478717804
-3554,6617307663
3366,68454456329
1599,96541404724
7889,55254268646
10872,7825741768
-3844,2397659421
-16238,0025196075
-22923,4170980453
-36031,1239681244
-36679,1943831444
-16892,7567074895
-3584,51931810379
468,802886962891
12387,4562778473
17721,5885329247
7261,69608342648
3689,87569761276
6544,05341815948
-1441,15137958527
-5494,10910844803
3846,1935685873
1931,89914798737
-14153,1116847992
-18068,2493810654
-12807,3623795509
-14062,9775978327
-5762,93976163864
18508,1047210693
31025,7477388382
25989,7336792946
22597,3431079388
26972,1326031685
44578,3192653656
62311,2933063507
48283,3790364265
13019,7772343159
2005,26534986496
27278,0439748764
48594,7935180664
40654,6943583488
21985,629809618
8214,09455537796
12819,6638851166
33074,5667924881
34147,3681106567
13787,8706035614
5091,70941448212
4546,77907180786
-8849,89361953735
-19173,5584430695
-16374,941852808
-23632,6086735725
-40802,4921302795
-39644,218503952
-24166,4415364265
-13941,1810153723
-1196,36334371567
9166,67059612274
679,844548225403
-7753,84848546982
-2096,46115016937
-5970,78939342499
-26332,0784721375
-34480,5668878555
-25923,0036416054
-21868,804266572
-14486,5512676239
2469,92697620392
7125,0807352066
2373,47396993637
7215,81269145012
9713,83859539032
4220,67584133148
8256,10595321655
11366,252600193
-2460,42992848158
-16015,3542551994
-26421,2286977768
-42212,1915140152
-41664,0859670639
-18734,5083591938
-3257,50318241119
1055,35238552094
12323,616604805
17460,0747423172
7399,76866698265
2541,26955366135
482,733601570129
-11303,7927036285
-13298,8186078072
369,080984711647
-6,81895399093628
-18488,3016376495
-25088,0069007874
-17890,1809811592
-13458,5344722271
-1011,8667883873
20106,4064321518
25253,1697626114
18970,8589968681
20030,8945375681
26315,1844425201
42027,9102869034
58861,8233299255
46252,5428714752
13466,355702281
6297,88777160645
39648,4966630936
71525,9507255554
66517,328499794
42592,1240798235
28853,5466380119
42300,205997467
65937,0386266708
59918,7520666122
31066,185731411
17177,0899758339
13505,0658168793
-3015,98373603821
-16423,6607675552
-15796,187399745
-23509,6977329254
-36615,4407615662
-28358,0093917847
-9150,07562923431
1493,70929855108
17609,4676575661
37981,8600969315
37006,0061693192
23431,7785482407
18591,73760432
8663,60855150223
-9936,49454593658
-12959,6661396027
-7344,96767950058
-13593,693410337
-13693,3274683952
-210,559999465942
2244,56981468201
-1289,16691684723
7470,41740357876
15310,4862294197
21557,67100811
36822,4060592651
36749,8554711342
13054,5960044265
388,336235523224
3685,92420864105
-1897,48088264465
-6138,48959875107
4623,96583175659
13952,930311203
24574,5239009857
42400,7863130569
40845,3916654587
19413,3691674471
15493,5272545815
30069,6229629517
31375,4158248901
23575,7345933914
22793,1961074471
22107,5769000053
29249,8695220947
42767,321606636
31470,4176392555
2169,56870776415
2797,44363689423
46809,08589077
84836,7024488449
79227,3494176865
51312,5602036119
29639,5569911003
34370,3606491089
57298,9588518143
68756,2625870705
49530,934039712
-21525,9851727486
-105327,205934525
-125015,066246033
-82916,600643158
-43247,3555089831
-55844,8991832733
-125912,689928055
-221787,827046394
-300975,426325321
-334283,729644239
-317420,744783878
-268992,3289814
-217488,942392349
-185232,120973587
-178795,585988104
-189395,094363689
-200892,442838669
-200212,427447319
-184652,358658314
-162159,63671273
-145575,678116322
-145628,906781197
-165137,662252426
-196194,06715107
-223294,829377711
-231252,205210686
-212906,292126656
-165388,817518711
-53667,2360467911
96954,9594134092
144378,256883621
58075,3814754486
-45586,739051342
-95286,3284440041
-98417,3838717937
-87764,4908051491
-88810,6247391701
-100309,831688881
-55478,1875178814
81875,0771241188
171602,735332489
109762,781906128
9847,19577169418
-9769,02627587318
37495,820961833
80230,3478765488
64528,2422571182
15630,3139367104
32834,6540210247
132501,691008389
178550,393936634
102182,821845055
25242,1797447205
57082,2079041004
156885,765642241
218392,43315196
177863,299465179
92244,8668704033
73790,4507288933
106881,122119576
77241,547239542
-14484,8681797981
-36379,4805631638
64150,2791433334
196121,87058121
245465,006446838
162554,978125095
6459,46459722519
-77010,5144472122
-57226,7947404981
-66386,5575900078
-120246,992321968
-104172,828324318
1113,69110107422
120135,105166972
207315,473194599
246074,132679939
208352,479736328
119015,008218288
58155,4163976908
78888,3256139755
175943,639308929
286297,585680008
317672,400871754
257527,576238811
200330,863390446
189461,227068901
179340,696768761
153295,391330242
139464,547130287
156983,74088335
187324,283468246
173582,708115578
91584,8616838455
-8776,67476254702
-65412,0977816582
-46176,7955207825
22338,3823299408
75802,9969353676
96044,9939346015
108990,814892292
112688,510622978
75701,8719978333
9234,28570604324
-43385,2588010132
-66530,8118548393
-50020,445561409
1659,97133922577
40186,7887911797
42812,139569506
41294,2405314445
52847,0446271896
48773,1275806427
17715,0011148453
-10056,3319443911
-22476,5924344063
-15680,2285394669
12659,842915535
26605,344145298
6462,03418850899
-13369,9439544678
-9628,52182483673
-6484,64998340607
-15682,7006878853
-16550,14419806
-2659,01221704483
26436,1875276566
55041,2540979385
44387,8464012146
413,121171593666
-26557,6976561546
-21830,2630519867
-17312,2162008286
-21283,9189896584
-17580,5692310929
-3244,18006563187
23970,0349063873
44803,5430831909
26627,8828611374
-13762,4954180717
-25002,0873298645
5980,22693443298
34557,7096271515
30545,3513026237
12705,8869048357
8100,75459909439
27477,8552746773
41250,4860506058
16231,3812274933
-23936,4979419708
-30660,6331062317
13357,1161613464
65672,5519361496
69942,621152401
32382,4916067123
4695,78516721725
17100,7949981689
38254,5367069244
25186,1136846542
-7955,03843045235
-18479,777405262
-908,797761440277
5158,47006797791
-16047,9300127029
-40921,8843334913
-52255,9765267372
-38071,5448408127
-11151,1154193878
-9168,65081787109
-28526,9659148455
-29332,4839043617
-8199,72085618973
-2603,6374912262
-19627,6938986778
-36825,5224116445
-51054,5358233452
-53210,064209938
-36827,9205970764
-31901,3342928886
-47110,3943760991
-46764,7930588722
-16798,8937854767
6299,65534496307
-479,812490463257
-16582,8975347877
-32287,3936252594
-40221,283932209
-29878,6438407898
-27530,3444108963
-48642,3513211608
-61114,3776636124
-48246,3201036453
-38122,0144815445
-41982,4655356407
-41463,0176563263
-36206,8895425797
-24216,7564592361
-4761,88640022278
-7516,59764146805
-36549,437725246
-53589,4909682274
-49780,3437604904
-51736,2392873764
-57355,8367600441
-51390,6132751703
-41350,3942294121
-23904,665471077
-1153,74156475067
-3607,08535432816
-29535,9521411657
-36722,5880208015
-17366,1025285721
-7555,38719367981
-16326,5404996872
-25644,9805893898
-37559,9001955986
-44992,5492534637
-34899,3933868408
-30928,9935870171
-44540,797862649
-43812,9335942268
-17713,4009513855
-1022,38942337036
-8303,39669084549
-18956,581441164
-19653,0869779587
-2394,44278240204
17133,8182592392
5756,37803459167
-25671,5175439119
-33253,8607859612
-6405,28641414642
14494,6307039261
4459,86191082001
-16505,4917163849
-32582,3475694656
-30576,0007143021
-10375,6592407227
-6176,40064334869
-23862,9073460102
-32185,7717986107
-33337,8740062714
-46970,8296546936
-56377,7193975449
-50900,2815467119
-55127,6224088669
-73433,3600645065
-76628,4630241394
-62060,4362206459
-50611,3742883801
-39029,7429065704
-30828,8628993034
-39613,3730602264
-45561,7437915802
-35023,4194167256
-33544,515871048
-55308,7820997238
-71610,6036062241
-64604,1311826706
-54036,8090616465
-44830,5336484909
-37905,7118234634
-45156,0752563477
-48664,9970827103
-32225,8885151744
-18963,7775402069
-20242,0258407593
-16574,0967531204
-12551,9139561653
-24376,2429656982
-36148,1231889725
-43416,6269836426
-56606,3923149109
-56173,0332946777
-34165,9924403429
-18327,6805329323
-12668,3727874756
-580,109380722046
3922,35735845566
-8010,55485761166
-13046,8834199905
-10620,5307502747
-17963,308886528
-21001,9791212082
-10810,6275746822
-9517,75592470169
-15431,7074041367
-9945,41099071503
-7275,0404214859
-15156,9491949081
-7863,33914041519
17408,1861257553
29378,7942419052
22799,8192424774
15995,4913336039
14150,9640717506
24572,0079450607
37426,0445270538
23308,0845646858
-7333,8364392519
-11559,149784565
24414,8317241669
59363,3291311264
55424,7876291275
28651,7854547501
9350,26238918304
16994,3961048126
38733,4348945618
35885,1429972649
10811,211403966
1844,27102327347
11737,0168304443
8233,94787597656
-8826,39424943924
-19693,3134884834
-28212,1523308754
-27827,4950485229
-7929,56932544708
6854,92894411087
3833,50354337692
6391,71841430664
16581,6001386642
11365,63514328
-2122,98180294037
-6165,53159177303
-13214,0462517738
-23151,8873410225
-17661,4926548004
-11329,4670972824
-19469,3642135859
-18603,9289093018
-109,349148750305
8405,52467250824
3154,68804454803
2881,01235306263
-826,998735904694
-12716,3948173523
-13608,0979852676
-10845,0431938171
-22084,3043979406
-30955,9605617523
-33120,6574258804
-42964,941365242
-43876,8160300255
-24698,9999019504
-9806,692445755
-3948,17269992828
8332,71971130371
12754,715388298
-725,439691781998
-9886,57172250748
-13155,1380214691
-23874,3928499222
-25428,9801578522
-10904,9430568218
-5663,42080450058
-9952,74920082092
-4205,34130859375
-881,433785915375
-9002,97780072689
-3391,62241744995
22568,2414102554
37813,4542312622
32006,9449400902
24191,8527654409
25856,0938749313
43157,6850538254
57814,9894275665
39373,3483605385
3114,24840927124
-5729,32061195374
30588,386595726
72387,0688352585
72417,4024105072
41838,1459543705
23921,6299653053
41886,5073881149
67516,8713712692
59502,2390708923
29818,6234076023
19351,5533661842
27965,7207927704
20496,268032074
-3228,09145116806
-20794,7169034481
-31898,8635392189
-28121,766951561
-4200,71295928955
8981,66159915924
1986,60875737667
6811,44236660004
28126,7575702667
32727,2449245453
16313,3846917152
1765,6166946888
-11960,9893283844
-21745,6619777679
-13605,457157135
-7683,91341590881
-19954,4569200277
-23664,3429727554
-7870,2985124588
-552,265651702881
-6228,9872174263
-6333,62651854753
-2652,40830469131
8332,69603776932
26530,6358604431
22802,1615567207
-3280,5963062644
-14295,3036141396
-7058,56362009048
-8921,11656188965
-14784,4134168625
-10598,9013940096
-10110,9429597855
-10623,8353257179
1226,18105602264
4792,07361650467
-8977,62245535851
-9129,52684879303
14761,7547011375
30524,9679908752
24889,1848201752
16625,008949995
16181,0169272423
30597,6463074684
46493,3008718491
31462,7828722
-4557,83595085144
-16129,9520363808
15042,7812633514
50002,3491802216
48620,4383215904
25040,605493784
9431,84564685822
20548,1738948822
44446,6820030212
40733,4533658028
11519,005854845
-2931,93016767502
627,883543491364
-7203,09128284454
-21928,3579697609
-26548,9700954556
-32569,3685703278
-37387,4732465744
-24002,8125209808
-9387,92917299271
-9126,53459525108
-6147,82900571823
-2159,25163936615
-13313,9204711914
-22173,3430438042
-16329,541266799
-19483,0527544022
-37381,461766243
-43250,7517175674
-35204,1466302872
-31055,3363489509
-21087,0086956024
-815,745466709137
6775,29048347473
2010,39140319824
3762,27439242601
2412,71157550812
-8312,74691867828
-9638,56475925446
-7805,9748544693
-20201,6160114408
-29253,9417133331
-27354,2463803291
-32363,9172811508
-34237,5187125206
-18835,9534751177
-5114,12085819244
2004,14528274536
15234,4920816422
18187,1383161545
1566,93798875809
-11201,7671432495
-18769,3269710541
-32523,40670681
-33832,0850019455
-17205,4052479267
-12679,8765769005
-27915,8995804787
-34355,5978422165
-25943,9396247864
-19347,1511172056
-9895,57564258575
-553,128887653351
-6519,28102016449
-11447,8658576012
-1923,52491152287
3108,70579719543
3634,37908506393
12690,3672142029
11173,0878009796
-7502,069439888
-9788,41636180878
16342,5058679581
36118,7415103912
31420,5394096375
20531,6389285326
9220,03529834747
5316,51217556
17899,2279233932
21367,1473994255
5412,36984312534
-3983,33293581009
-7230,46271133423
-20095,6537494659
-25740,4090442657
-15944,6021045446
-16684,2124433517
-32818,331287384
-35414,9270496368
-21205,1967301369
-10135,2959394455
-69,4787168502808
4314,533680439
-7850,35521221161
-14455,6996021271
-3861,87630963326
-2790,29905843735
-21338,853094101
-31452,8103914261
-24166,9563822746
-19082,0221111774
-11402,0410342216
3315,53566360474
5213,44082164764
143,877849578857
6374,26364088058
10757,986301899
8403,52263212204
15077,6819810867
17816,3448591232
2982,11408078671
-6457,54456186295
-6241,70465707779
-15082,5034532547
-19567,7022604942
-6635,20561981201
3698,24121189117
9170,76780176163
22729,2775735855
26066,1111931801
10644,4872682095
5677,33417081833
15544,4822049141
14456,9264764786
7199,15419578552
9073,15404736996
7363,57547473907
3703,90043210983
12830,7352752686
16656,7168087959
4223,91468989849
4409,75750780106
29610,1427755356
47329,5418167114
40666,0026321411
29103,988443017
27863,6627941132
45253,0138168335
64928,7176771164
52928,0258831978
18776,8973335028
7105,16539955139
36292,3875961304
67857,3403615952
62373,1039147377
34908,4839273691
16193,1027293205
25490,3104147911
49911,9068813324
49202,2839078903
23934,6231393814
11859,9002184868
14301,1707892418
3566,81084442139
-12890,3320131302
-18251,444128871
-24717,6209430695
-29097,3255972862
-14847,4965076447
595,233484268188
2388,85223472118
8481,94157910347
17818,472492218
10572,8445644379
-337,472406387329
475,009306430817
-5335,05022621155
-20250,5937862396
-21151,1977062225
-14978,0023245811
-19013,0023726821
-14532,1148586273
10706,54500103
28532,5582590103
25833,7044057846
21478,7340291739
15702,2328486443
9236,79429340363
15011,7627372742
14161,6599197388
-8396,17094671726
-23161,5599603653
-14395,8909687996
-8026,78792667389
-10418,1756124496
-4794,02939462662
5126,83429479599
20555,1332950592
42044,6121587753
40371,6571826935
12374,6666861773
-3563,23856544495
-516,579203128815
-4889,71438980103
-12240,5687379837
-8301,4467895031
-7507,73478603363
-8846,51309680939
2226,78800582886
7251,41950750351
-4050,68216323853
-3008,17907047272
19120,886715889
30838,2464637756
22594,6120615005
14207,4801232815
14323,7408103943
29444,9090657234
47197,2644863129
35530,5422782898
3153,2178453207
-5520,09261226654
25017,2559394836
54368,3764190674
48100,6628694534
23655,8881874084
5934,82094478607
11621,4253673553
32942,7402639389
32465,3848333359
9282,62409079075
-584,590099334717
2408,95614910126
-7937,30927467346
-21513,0932350159
-23408,6016165018
-29826,2787213326
-38855,6249480247
-29634,256439209
-15112,9487404823
-11823,141379714
-3122,44647693634
11918,2334561348
10281,0060825348
-364,783267021179
-1887,57165515423
-8312,74233865738
-22947,8867926598
-24119,111284256
-18865,5148015022
-24938,9619716406
-24109,7884335518
-5838,99219942093
4095,82550144196
272,335096359253
1517,24336308241
961,719498157501
-5391,13134717941
-605,132529258728
4057,46298313141
-9494,06559574604
-19608,939470768
-10477,6649909019
-4834,12690162659
-8999,98512601852
-4902,64629352093
9855,32867574692
36024,3672165871
60242,9299316406
49445,538462162
12247,8276939392
-8593,16331624985
-10409,970703125
-18301,998415947
-24461,9228777885
-18769,7960010767
-21354,1274046898
-31685,5658597946
-26617,4624652863
-15558,8792724609
-14132,9099822044
-7323,39280462265
3483,45807218552
-1096,23664569855
-8123,47198438644
-4354,63265550137
-10810,0270657539
-32732,9340119362
-41974,4153013229
-34294,4836883545
-28061,4599868059
-16189,9016819
2894,8819899559
7034,25018692017
839,81537103653
3163,60102462769
1801,87704372406
-10088,1129574776
-12313,3227233887
-9027,44031953812
-17993,5446223021
-25364,0485749245
-27257,3836240768
-37482,079580307
-39406,0604958534
-21917,294549346
-9782,84728193283
-8271,58006286621
1612,7931394577
9771,82355546951
3057,22157454491
-1590,53904390335
-4001,46016645432
-16598,5960083008
-21022,2654600143
-8370,11232554913
-6074,91320133209
-21562,666021347
-27186,2847995758
-19452,0819516182
-15865,4063073397
-7198,05964708328
8316,24855613708
9258,49508857727
2879,87058067322
6968,82219815254
11704,6130518913
18110,5149412155
31754,9227323532
27688,9184803963
2317,00008165836
-6058,45454216003
17199,2686462402
36863,9879207611
31816,2508039474
20139,4616658688
9547,41153717041
8221,94860553741
23319,0238323212
27076,7993893623
9221,145154953
-2340,98972415924
-6434,95977878571
-19755,637096405
-26456,965534687
-17384,3210695982
-16425,3776888847
-24592,5935773849
-18384,7946214676
-6020,00984954834
-3423,4940687418
-3468,91268491745
-11092,860165596
-27027,2142772675
-26629,7857165337
-10680,0452297926
-13247,3684983253
-48069,0852441788
-79073,9019536972
-72759,962328434
-46003,5154205561
-18492,9767169952
-3959,00289916992
-12597,1342277527
-18968,2410664558
-6221,23961031437
1699,25103855133
-4727,34599256516
-3021,23149776459
5773,47815322876
3665,97629356384
-1488,42590761185
-8979,44135284424
-25025,4586811066
-26807,756611824
-6945,38666701317
5226,32585144043
4295,21312522888
10747,4369916916
15619,0957322121
7041,83634376526
4401,61656856537
8766,35937452316
2661,27947998047
-449,607835292816
10251,4632636309
10890,058016777
-4179,82223033905
-9044,21483516693
-4381,01853132248
-7207,0233604908
-2091,02264642715
21023,8379430771
34921,0130224228
30193,0088734627
26899,5312144756
35734,2265310287
60663,4993200302
81737,2013549805
65655,7054696083
26176,9707254171
10199,2144260406
38073,355717659
72749,2352323532
70451,6173381805
43067,2412887812
26093,2527780533
40328,1160001755
66812,1111564636
64141,3755283356
36728,1373927593
23336,439303875
24454,0687398911
11220,6227836609
-9074,66713857651
-17632,4194283485
-25844,4921875
-31571,3396596909
-17177,9650535583
-279,644429206848
389,807994008064
6907,68752193451
32198,8127303123
46256,4065151215
34366,7221412659
18683,8993427753
4525,65566205978
-5003,04955720901
3088,89588069916
8591,69913911819
-6487,57841932774
-16329,0164964199
-6289,90797758102
-1146,28999900818
-6601,27658843994
-4776,62169444561
892,375086545944
11621,8183913231
30288,8418598175
28859,5475101471
2681,40867710114
-11201,8802089691
-5530,38195562363
-7166,43936920166
-13319,9083142281
-9194,27098917961
-3791,09222555161
6632,52875709534
24364,2075386047
21908,3991684914
-224,412788033485
-3151,02427506447
20763,6604127884
35590,9301929474
27714,7036671638
15562,0891158581
908,726040363312
-9396,12465333939
-1462,31731987
2625,2796754837
-11045,1301566362
-12839,9743168354
11403,5703983307
29308,3261909485
23282,4105405807
13098,9013326168
14858,1306920052
35931,9022550583
56953,9270048141
43249,0993099213
6936,71159386635
-5666,44919776917
21906,8566193581
50013,5665102005
43038,5841898918
17996,4375383854
1845,85545921326
11808,7912492752
37469,4727630615
38951,1291046143
15010,0638238192
1662,08673000336
-1550,3859796524
-16961,9015035629
-30470,4482183456
-29552,9050712585
-36356,169731617
-54962,312186718
-57194,9492368698
-41249,4323263168
-28718,2991762161
-15227,4601836205
-208,43285369873
-2193,44806671143
-10719,2110600471
-7567,51225817204
-9570,02563381195
-26639,1548523903
-34767,2068481445
-30396,9574637413
-33403,6747407913
-36100,8812766075
-35730,6205258369
-44721,6159715652
-44833,8640537262
-24735,7902755737
-11698,4075112343
-15771,5161361694
-14482,0253982544
-8672,17424726486
-13795,7019745111
-21103,9673299789
-30889,5194096565
-46941,4786243439
-45125,2442722321
-21949,0332311392
-9654,60706996918
-12514,271217823
-7966,72710895538
-3450,0467171669
-10099,5008220673
-12743,189555645
-14010,1816620827
-23271,6751813889
-21455,5707774162
-6080,04981648922
-8450,53682661057
-36460,5385174751
-55396,5969696045
-48542,0958690643
-34389,5742868185
-15122,2892956734
4975,21410179138
5822,63111019135
-557,320637702942
4636,03929924965
9290,82166337967
13963,3740549088
26913,6981811523
24769,1234102249
1771,31854021549
-6245,36822891235
14965,6526241302
32079,0349903107
26564,1452488899
16732,5056684017
9563,39986658096
13118,9458026886
32626,2819023132
39056,7767224312
22685,9980486631
9409,76316404343
-320,885643005371
-18371,410235405
-25437,8749527931
-14616,5795528889
-14091,4510598183
-28117,345500946
-29379,154630661
-18892,0050983429
-13847,2858777046
-3314,6509475708
13473,2657012939
14402,2630586624
6604,46061229706
7919,43182063103
3031,02572822571
-16747,4728794098
-25990,2517871857
-19548,5815043449
-18839,0711610317
-17416,8443861008
-9460,66174697876
-12611,51658535
-17438,1917557716
-6641,33616387844
3039,14513492584
5651,13913059235
16405,8714075089
20834,9977884293
5490,25910246372
-6804,52187681198
-12499,5112266541
-25828,3420524597
-29344,1694116592
-13681,8261729479
-4143,17791366577
-3532,48667621613
6232,60781383514
12546,8558077812
4859,29164004326
4094,79398393631
10319,6965408325
4282,98668193817
-1415,37663459778
4964,16284024715
1203,01514863968
-16221,3845901489
-20682,621547699
-13768,2246222496
-13045,0546486378
-5551,76150083542
13225,4063844681
19283,7235383987
13903,210504055
14654,2854161263
18494,2589902878
29585,4613103867
44952,7534694672
35381,4717087746
5206,47018778324
-2751,14652967453
21550,265001297
39375,0022726059
32003,9747972488
18407,3638125658
5328,78032255173
2016,28324890137
16669,7254142761
22507,6552853584
9891,72313392162
1788,95304298401
-5321,61724281311
-22287,0270347595
-27936,5513143539
-16987,3232982159
-19303,2328367233
-44468,2498817444
-59590,610461235
-47347,2447128296
-28292,3524917364
-10134,5998473167
-131,811437606812
-10243,2055425644
-17813,3445072174
-6927,10233926773
-2474,60612726212
-18952,2245464325
-30151,9620571136
-22662,7805423737
-16919,5878634453
-13471,8312501907
-9369,19718360901
-17458,2598590851
-22258,3551402092
-7454,47023308277
5759,01908302307
8694,11741256714
17910,530210495
22097,2937936783
7052,28878927231
-4399,35469818115
-6981,91299724579
-17532,2950801849
-21026,7466158867
-5879,5777528286
5029,70081806183
8513,66083145142
19905,3350820541
24202,2914071083
11961,8276895285
7894,2906537056
14200,9993376732
9568,57745456696
4153,85549688339
10380,0212135315
7389,24047756195
-7677,88358354568
-9453,85388565063
-2717,92125034332
-4858,53240036964
1882,21138525009
27923,4362945557
43921,470489502
38178,9933815002
31208,3273779154
35168,5308580399
56017,12687397
76152,5956659317
61927,4495658875
25260,3032339811
12704,595032692
43111,9040336609
76720,2132482529
71955,2872471809
44139,0184135437
27169,3027644157
41262,3536262512
69075,1310300827
67853,9270424843
41301,728564024
29804,9804868698
32750,5414743423
19852,9553890228
137,274094104767
-7504,12203407288
-15888,5348706245
-20498,8581957817
-3354,918592453
13103,1347074509
11637,0240014791
20279,4313163757
50264,8369927406
66124,2462759018
53244,8520107269
36279,2898188829
20541,1766691208
11487,3040328026
22984,865190506
29416,6658949852
4503,99012100697
-50619,9200091362
-111207,671413422
-127050,527436256
-87717,177816391
-41611,3087500334
-37698,1850619316
-89451,4164457321
-161359,369371414
-153755,224665165
-49218,9775882363
935,318708896637
-53687,8238248825
-98718,4705266953
-78022,9468932152
-32356,3768860102
-17279,8709692955
-56962,9009399414
-121553,432648659
-112021,813028336
-15257,6931516528
17119,1816120148
-53744,7086668015
-103796,812874794
-77136,9909310341
-20129,7631742954
5026,08420562744
-16385,1993150711
-7128,4460439682
97159,6117253304
231423,801091492
305747,747056484
279129,187315941
190950,050264359
149314,104850292
176997,640205503
192517,316576958
144333,722441673
93440,4372196198
103816,375270367
134218,75230141
122641,709324837
59238,7148666382
17339,6075325012
73979,3520665169
182557,210024084
228897,990767479
148001,653554916
-1461,40206241608
-76650,0386638641
-66663,9572914913
-103100,0113554
-186026,690193176
-185421,471870422
-73709,0704526901
54936,1449918151
103484,842007637
38211,3159503937
-87073,9148168564
-136662,92271328
-45384,0608378649
47257,5065460205
16493,9624347687
-54152,2762565613
-52434,0124435425
7129,7003711462
46795,0342884064
18584,2418050766
-26720,0312576294
12024,5605592728
120150,856717587
162459,38983345
77030,0661869049
-28173,5537252426
-39399,6778621674
20735,2032575607
61634,2724776268
27858,8030176163
-27632,4217643738
-190,141761779785
74165,3562445641
53911,8696160316
-58837,2679738998
-121874,10676384
-77824,2045326233
2077,57278752327
30563,8700728416
-27404,2889566422
-120904,429271698
-126473,574867249
-6656,06543064117
121652,889727116
182133,931456566
193621,53345871
171438,08876133
159160,934878588
213929,867146492
294228,938572884
300173,718273163
214385,778661728
103171,741825819
32398,9044370651
29815,5812730789
77324,4228162766
108097,741927147
89626,7427656651
85547,7666087151
124522,876384735
151985,298067093
142787,707113266
119834,965771198
106432,305214882
96586,8754224777
49171,5905380249
-46575,6857433319
-140151,765390873
-176293,225989819
-135140,937817574
-59150,3004646301
-10096,7827272415
8110,68182229996
28016,275714159
51967,5218114853
40462,349319458
-17897,5219993591
-84192,4381361008
-131808,131219625
-143639,202236176
-114721,227701187
-84673,9016065598
-77144,0532500744
-65497,1095011234
-33952,8448209763
-14150,9462566376
-27833,5356111526
-52606,5759837627
-73988,7024700642
-82475,2538757324
-72709,5703601837
-74413,5232896805
-97172,1892697811
-105697,413620949
-91102,9462423325
-81403,2541356087
-77382,02561903
-65754,5577244759
-56415,3804316521
-48198,1309900284
-40305,4167866707
-57487,1453952789
-93380,6366804838
-104192,22025013
-84488,9522013664
-67624,4498019218
-58024,803601265
-45901,0838438272
-47934,3008015156
-64622,8890442848
-73933,3902430534
-83973,0631752014
-104682,541869104
-107618,629414082
-76725,2226510048
-44334,1454362869
-33047,7118730545
-29180,7345796227
-21325,0103564262
-3499,23467636108
8427,07215023041
-16021,6123895645
-62083,4079930186
-81085,6912236214
-54836,3170852661
-21836,4296708107
-18243,6974473
-31172,8613898158
-39245,1209893227
-28192,4680571556
-7479,71819210052
-12980,2775506973
-42096,000054419
-57754,3404998779
-59857,9237971306
-71304,8093709946
-80459,4413332939
-75566,7882514596
-75990,4102988243
-81108,6169199944
-70620,9338264465
-56912,1449203491
-55601,9963824153
-50614,8165125847
-41728,8642168045
-47408,3590660095
-55554,1695699692
-52131,5890514851
-54746,5167937279
-64185,751455307
-59545,5395383835
-50751,9265794754
-53179,2039629817
-48012,5089507103
-26862,7675714493
-16174,2166128159
-22759,3629961014
-27199,5576530099
-32956,4448671341
-42033,0158286095
-38400,1532411575
-34302,7772846222
-47334,2720350027
-55601,9486289024
-43743,2097196579
-35718,499004364
-39796,834482193
-37791,7095557451
-31856,0435771942
-22481,0012731552
-3709,95320987701
-226,639182567596
-22090,6700130701
-37648,0367870331
-38788,2589383125
-46977,7279872894
-54664,4089894295
-47337,8356738091
-36907,0955724716
-22313,4268193245
-48,5034236907959
3856,95961284637
-13799,1420025826
-18280,3318090439
-5398,55243730545
-4469,80272769928
-14860,6576976776
-19946,630235672
-20132,005102396
-9024,36111927032
6780,02902317047
-248,193643569946
-22610,843084693
-21318,7169702053
17524,9492621422
55019,1704597473
51452,7030711174
21279,8075515032
-1524,45112347603
4266,68286418915
24376,05119133
21651,1189594269
-550,297596931458
-6019,37073945999
9024,26585054398
11398,8315992355
-5220,25477457047
-20239,3689869642
-33056,1612436771
-37769,0386652946
-22988,412879467
-12041,1238064766
-18543,502332449
-19822,2331292629
-16513,8220214844
-26330,917743206
-33746,6109342575
-27234,6272376776
-28820,0308270454
-43135,6327486038
-45063,9151773453
-34119,9026384354
-28343,9336567521
-18918,953797102
-2106,16464614868
1382,77256727219
-4393,67238950729
-1122,22578161955
-1075,86028432846
-12437,6079940796
-15519,6440629959
-12164,95368433
-20367,3643357158
-28088,536796093
-29237,5983185768
-36498,8729104996
-35773,2752695084
-16207,8115337491
-2442,7839038372
-3732,21820545197
-675,923289299011
3376,89095783234
-4657,28088539839
-13165,8923094273
-21470,5274233818
-35173,7425394058
-33114,9222998619
-11245,7406497002
-1244,54701280594
-11974,3091139793
-17086,135307312
-12191,6050481796
-11532,7092181444
-7772,77162885666
-3676,63766431808
-11271,678144455
-12256,002840519
2343,64079940319
8818,18792939186
5562,2751121521
10164,758603096
9751,48828315735
-3959,51459479332
-2904,75954222679
21312,2692055702
36806,7963018417
32328,338476181
25522,4635179043
16512,4542067051
10258,8003072739
19105,8916158676
22549,8815140724
8970,09493124485
2284,97373843193
3122,17546463013
-6438,79776000977
-12057,9172754288
-3414,17012536526
-3988,12203931808
-21158,9412522316
-27484,2971553802
-15194,2828884125
-3856,12792015076
-3404,47522211075
-20344,3361878395
-41860,9002437592
-37569,6376461983
-13690,8234318495
-7351,06949496269
-29336,2228198051
-45278,1127853394
-33204,4577312469
-11849,3875989914
9170,28861045837
21968,7492733002
13726,7513284683
4922,71702432632
12370,9262610674
14606,7053542137
-2448,98413848877
-14208,6121530533
-6211,73960161209
2174,55923724175
6117,21397638321
4389,40728330612
-9776,77047348022
-14133,7991132736
3955,33843374252
18378,0361070633
18092,936068058
22809,4586706161
30784,8909196854
26671,0966608524
18982,9861445427
8547,53571081161
-8528,41265487671
-9570,04462480545
10551,21768713
21993,4813108444
19316,3480405807
23196,5544948578
26967,2625761032
20296,7113132477
23117,0007929802
38813,9704666138
42970,1309652328
37502,0353031158
38424,4454405308
41646,4479718208
50829,6812429428
63102,0445356369
52038,9916381836
22546,7771741152
15570,5077908039
46903,0790176392
78428,4818878174
76073,8205294609
54891,5404714346
37322,3219282627
39881,6853442192
57825,1390047073
56323,6220436096
33164,43326056
23887,589140892
33879,9209375381
33562,5286607742
20207,9385199547
11592,6349313259
3007,88866591454
-1710,81806707382
11572,0500707626
24597,4625282288
22756,9934529066
23638,1495792866
26381,8483295441
14805,3932676315
4459,70250606537
8346,63725304604
6518,66554808617
-3058,5306634903
555,239368438721
8596,01809406281
5481,58525872231
9691,64439582825
30330,9990348816
41251,2567138672
35439,8882761002
31372,317918539
24140,7574648857
9772,13247489929
6910,463514328
9819,07004261017
535,285039305687
-6323,55478620529
-4528,64039039612
-10517,4830417633
-13460,4775099754
450,320439457893
11474,053602457
12397,651640892
19730,3093061447
24881,5260720253
14718,2103785276
4541,8095934391
-3465,8952050209
-17487,6710672379
-18641,9966907501
-922,25450193882
8596,79426670074
6257,81436443329
11771,9534349442
16414,5771036148
9275,5836148262
10482,2475144863
24291,3557829857
27745,8241233826
22836,3427391052
24002,8654993773
17812,8289878368
489,446200370789
-4667,12005615234
833,477198123932
-810,370082378387
3063,68477678299
21747,914460659
31395,6814012527
25900,549226284
24164,2638059855
31944,3600335121
52601,1185898781
73694,9300699234
63303,2274179459
29297,2875343561
13695,9675781727
19565,6296434402
17036,0813541412
8068,55214834213
6320,92810189724
-2286,02676844597
-17850,6212348938
-17031,9645996094
-6403,40423774719
-4385,33548498154
3979,42270946503
27509,8866024017
39252,5620574951
30115,6102442741
20867,8417525291
22635,7831823826
41240,5454044342
62027,0904436111
52064,1558465958
19313,7498142719
6814,37356901169
32644,5903773308
61086,263133049
55661,6338715553
30908,5831098557
15445,2279801369
26642,5481996536
51369,3188514709
51130,6450242996
26683,9192060232
13911,2461509705
14489,7854609489
3098,85410022736
-12562,1154623032
-16906,5758273602
-23102,8903303146
-29152,2191443443
-17509,7934684753
-3387,85833692551
-1931,04896855354
5409,4589343071
21551,2761096954
22696,3210830688
11777,2017498016
7258,85806238651
-1130,21046257019
-18072,1173677444
-22679,3160514832
-18862,7487168312
-24915,1986165047
-25154,9411969185
-9598,62205505371
-2041,29591321945
-5013,5568728447
-431,590903520584
4041,67011833191
5146,06101560593
14532,6767082214
15424,8378658295
-3965,10097289085
-18102,8052892685
-21048,2479138374
-29847,2266378403
-32196,0116071701
-17384,826705575
-6138,08376860619
-938,637537479401
11107,8923549652
13805,4398984909
63,9834679365158
-4434,05223989487
1417,85393714905
-3205,85001850128
-8002,09451913834
-1408,70433878899
-3087,10387516022
-14507,0579195023
-13994,4841871262
-9790,2898015976
-15751,2164033651
-10854,4481954575
15936,1277337074
34827,5229415894
30544,9870176315
21883,4773037434
22850,9194226265
40482,7529988289
58050,5051317215
43265,8657159805
7668,18811583519
-4693,09584784508
24498,4938297272
58761,9345293045
56376,0904202461
29359,7456165552
11513,9878931046
23225,3873815536
48052,9209747314
45911,3510560989
18406,9611839056
4588,08485507965
13713,8936567307
13793,4484395981
-4101,645840168
-19412,1260507107
-30582,5083534718
-32681,076482296
-14896,1348705292
-1221,5427312851
-8568,38538360596
-10307,5173106194
11890,4596138
29226,4091587067
18959,129322052
869,030303001404
-9728,24764299393
-3291,92894220352
20824,5049343109
30170,098004818
13191,2462422848
344,768220424652
1841,05756950378
-4115,05982542038
-15512,5972361565
-15610,2449479103
-17611,0565123558
-30602,1451716423
-34409,8245606422
-29231,0530347824
-33501,2066909075
-35487,7490253448
-28819,0544161797
-31158,6082286835
-33674,5998439789
-21364,7984716892
-12181,5412447453
-13408,7897639275
-8268,34186601639
-5832,90396213531
-19247,8238335848
-28626,3498904705
-30477,7943615913
-39112,5086536407
-39090,6420140266
-22285,8678486347
-13754,0773806572
-16727,5206508636
-11294,2914352417
-6140,65899038315
-12051,1581562757
-10764,379039526
-2524,10505914688
-5987,22106838226
-9571,90464067459
-2138,49375331402
-5059,87075710297
-22361,8464713097
-29003,9333410263
-25444,049302578
-26733,3190950155
-19419,1625819206
2592,10133647919
14307,8038682938
11101,6082935333
10295,0755654573
4990,52134275436
-8297,08271694183
-10604,0956230164
-8618,69667673111
-19140,1700130701
-25453,9424955845
-21380,8629179001
-25358,9068222046
-28807,6772389412
-17937,1283475161
-9711,21047902107
-7663,29896211624
3514,41514205933
10231,9480524063
394,20070040226
-6981,84838962555
-11713,0580220222
-25622,409283638
-30289,1156072617
-17959,9619575739
-14999,2807176113
-26863,9483366013
-28082,8463850021
-18204,3112196922
-13710,0206229687
-4609,29067659378
10815,1126217842
11242,2465934753
2848,59734392166
3523,19526648521
7474,14497160912
17224,1761441231
32233,0890874863
26377,1003694534
1064,06975984573
-5683,30755138397
19526,4008250237
41433,2223243713
35651,4371933937
19517,1915584803
6007,81551098824
6376,82997989655
23315,4147987366
26115,300034523
7257,77045345306
-2132,15031766891
261,732280731201
-8183,06690502167
-17941,6321845055
-15692,0169745684
-19312,3882181644
-31326,0056767464
-28740,1702775955
-15872,1237201691
-10182,8698912859
-7375,88518381119
-12751,0774798393
-29349,3697538376
-31855,6624832153
-16362,3428784609
-13122,0373389721
-26926,8556303978
-30384,778377533
-21415,1513156891
-15893,4768255949
-5021,58628845215
12459,2570486069
15823,2952404022
10193,7461194992
12325,3253515363
8463,55167818069
-9449,79704284668
-18473,4470767975
-15475,2725334167
-19224,2753372788
-21421,0930719376
-17369,3779344559
-22099,7453546524
-23573,6988182068
-8320,63273853064
3895,98242712021
7493,82281208038
17421,8210668564
20608,5441799164
5649,55694901943
-5534,11043167114
-9881,52004384995
-21031,1999950409
-23151,161854744
-8308,18744552135
1485,38561058044
6311,71243095398
17295,9254283905
15435,8718652725
-2726,36679518223
-4864,09931468964
12364,6399517059
18479,0747737885
12613,0820946693
9919,06904840469
1481,1349709034
-8199,79798364639
-1522,92417526245
6326,42653942108
3237,80740725994
6373,39523601532
10833,3545198441
827,502244949341
-5670,99463367462
1060,74809515476
-3227,71674251556
-23032,1690645218
-30661,4613046646
-22397,3065347672
-15723,9329693317
-3666,47519445419
15366,4496264458
19528,2233219147
12690,2302913666
13487,9597242475
19933,0215911865
34946,9646663666
52535,350856781
43710,5528054237
13125,4782248735
1988,5440735817
24090,9393787384
43945,4685468674
37979,5867238045
23410,928332448
11271,3813223839
11464,1741142273
27670,6944980621
30261,5897088051
11051,8399047852
-618,291073322296
-2806,61544561386
-14133,9170370102
-21852,6005187035
-15195,77412045
-15586,1639399529
-26701,3822321892
-24461,7502222061
-11342,2529606819
-5398,4692838192
389,479516506195
