0
0
0
0
0
0
0
0
0
0
0
0
0
0
0
0
0
0
0
0
0
0
0
0
0
0
0
0
0
0
0
0
0
0
0
0
0
0
0
0
0
0
0
0
0
0
0
0
0
0
0
0
0
0
0
0
0
0
0
0
0
0
0
0
0
0
0
0
0
0
0
0
0
0
0
0
0
0
0
0
0
0
0
0
0
0
0
0
0
0
0
0
0
0
0
0
0
0
0
0
0
0
0
0
0
0
0
0
0
0
0
0
0
0
0
0
0
0
0
0
0
0
0
0
0
0
0
0
0
0
0
0
0
0
0
0
0
0
0
0
0
0
0
0
0
0
0
0
0
0
0
0
0
0
0
0
0
0
0
0
0
0
0
0
0
0
0
0
0
0
0
0
0
0
0
0
0
0
0
0
0
0
0
0
0
0
0
0
0
0
0
0
0
0
0
0
0
0
0
0
0
0
0
0
0
0
0
0
0
0
0
0
0
0
0
0
0
0
0
0
0
0
0
0
0
0
0
0
0
0
0
0
0
0
0
0
0
0
0
0
0
0
0
0
0
0
0
0
0
0
0
0
0
0
0
0
0
0
0
0
0
0
0
0
0
0
0
0
0
0
0
0
0
0
0
0
0
0
0
0
0
0
0
0
0
0
0
0
0
0
0
0
0
0
0
0
0
0
0
0
0
0
0
0
0
0
0
0
0
0
0
0
0
0
0
0
0
0
0
0
0
0
0
0
0
0
0
0
0
0
0
0
0
0
0
0
0
0
0
0
0
0
0
0
0
0
0
0
0
0
0
0
0
0
0
0
0
0
0
0
0
0
0
0
0
0
0
0
0
0
0
0
0
0
0
0
0
0
0
0
0
0
0
0
0
0
0
0
0
0
0
0
0
0
0
0
0
0
0
0
0
0
0
0
0
0
0
0
0
0
0
0
0
0
0
0
0
0
0
0
0
0
0
0
0
0
0
0
0
0
0
0
0
0
0
0
0
0
0
0
0
0
0
0
0
0
0
0
0
0
0
0
0
0
0
0
0
0
0
0
0
0
0
0
0
0
0
0
0
0
0
0
0
0
0
0
0
0
0
0
0
0
0
0
0
0
0
0
0
0
0
0
0
0
0
0
0
0
0
0
0
0
0
0
0
0
0
0
0
0
0
0
0
0
0
0
0
0
0
0
0
0
0
0
0
0
0
0
0
0
0
0
0
0
0
0
0
0
0
0
0
0
0
0
0
0
0
0
0
0
0
0
0
0
0
0
0
0
0
0
0
0
0
0
0
0
0
0
0
0
0
0
0
0
0
0
0
0
0
0
0
0
0
0
0
0
0
0
0
0
0
0
0
0
0
0
0
0
0
0
0
0
0
0
0
0
0
0
0
0
0
0
0
0
0
0
0
0
0
0
0
0
0
0
0
0
0
0
0
0
0
0
0
0
0
0
0
0
0
0
0
0
0
0
0
0
0
0
0
0
0
0
0
0
0
0
0
0
0
0
0
0
0
0
0
0
0
0
0
0
0
0
0
0
0
0
0
0
0
0
0
0
0
0
0
0
0
0
0
0
0
0
0
0
0
0
0
0
0
0
0
0
0
0
0
0
0
0
0
0
0
0
0
0
0
0
0
0
0
0
0
0
0
0
0
0
0
0
0
0
0
0
0
0
0
0
0
0
0
0
0
0
0
0
0
0
0
0
0
0
0
0
0
0
0
0
0
0
0
0
0
0
0
0
0
0
0
0
0
0
0
0
0
0
0
0
0
0
0
0
0
0
0
0
0
0
0
0
0
0
0
0
0
0
0
0
0
0
0
0
0
0
0
0
0
0
0
0
0
0
0
0
0
0
0
0
0
0
0
0
0
0
0
0
0
0
0
0
0
0
0
0
0
0
0
0
0
0
0
0
0
0
0
0
0
0
0
0
0
0
0
0
0
0
0
0
0
0
0
0
0
0
0
0
0
0
0
0
0
0
0
0
0
0
0
0
0
0
0
0
0
0
0
0
0
0
0
0
0
0
0
0
0
0
0
0
0
0
0
0
0
0
0
0
0
0
0
0
0
0
0
0
0
0
0
0
0
0
0
0
0
0
0
0
0
0
0
0
0
0
0
0
0
0
0
0
0
0
0
0
0
0
0
0
0
0
0
0
0
0
0
0
0
0
0
0
0
0
0
0
0
0
0
0
0
0
0
0
0
0
0
0
0
0
0
0
0
0
0
0
0
0
0
0
0
0
0
0
0
0
0
0
0
0
0
0
0
0
0
0
0
0
0
0
0
0
0
0
0
0
0
0
0
0
0
0
0
0
0
0
0
0
0
0
0
0
0
0
0
0
0
0
0
0
0
0
0
0
0
0
0
0
0
0
0
0
0
0
0
0
0
0
0
0
0
0
0
0
0
0
0
0
0
0
0
0
0
0
0
0
0
0
0
0
0
0
0
0
0
0
0
0
0
0
0
0
0
0
0
0
0
0
0
0
0
0
0
0
0
0
0
0
0
0
0
0
0
0
0
0
0
0
0
0
0
0
0
0
0
0
0
0
0
0
0
0
0
0
0
0
0
0
0
0
0
0
0
0
0
0
0
0
0
0
0
0
0
0
0
0
0
0
0
0
0
0
0
0
0
0
0
0
0
0
0
0
0
0
0
0
0
0
0
0
0
0
0
0
0
0
0
0
0
0
0
0
0
0
0
0
0
0
0
0
0
0
0
0
0
0
0
0
0
0
0
0
0
0
0
0
0
0
0
0
0
0
0
0
0
0
0
0
0
0
0
0
0
0
0
0
0
0
0
0
0
0
0
0
0
0
0
0
0
0
0
0
0
0
0
0
0
0
0
0
0
0
0
0
0
0
0
0
0
0
0
0
0
0
0
0
0
0
0
0
0
0
0
0
0
0
0
0
0
0
0
0
0
0
0
0
0
0
0
0
0
0
0
0
0
0
0
0
0
0
0
0
0
0
0
0
0
0
0
0
0
0
0
0
0
0
0
0
0
0
0
0
0
0
0
0
0
0
0
0
0
0
0
0
0
0
0
0
0
0
0
0
0
0
0
0
0
0
0
0
0
0
0
0
0
0
0
0
0
0
0
0
0
0
0
0
0
0
0
0
0
0
0
0
0
0
0
0
0
0
0
0
0
0
0
0
0
0
0
0
0
0
0
0
0
0
0
0
0
0
0
0
0
0
0
0
0
0
0
0
0
0
0
0
0
0
0
0
0
0
0
0
0
0
0
0
0
0
0
0
0
0
0
0
0
0
0
0
0
0
0
0
0
0
0
0
0
0
0
0
0
0
0
0
0
0
0
0
0
0
0
0
0
0
0
0
0
0
0
0
0
0
0
0
0
0
0
0
0
0
0
0
0
0
0
0
0
0
0
0
0
0
0
0
0
0
1595,65515166521
-955,693352062255
-2346,72041493654
-691,649186730385
367,809864461422
127,242875516415
166,079250160605
-206,38742724061
-71,0483962893486
1923,41542679071
2330,96972078085
-264,141919668764
-1113,01515892148
739,683250486851
1247,71387588978
403,326214909554
63,6349738910794
-649,732588320971
-753,658947646618
1364,30735290051
2154,07013511658
-236,230074536055
-845,018674969673
1407,93930691481
2014,25840896368
984,685159564018
445,998442284763
-564,910856515169
-1781,46621549129
-847,171240329742
341,089525461197
-1322,24645741656
-2213,25393930078
-224,333371758461
816,219703316689
362,604435145855
273,227952446789
-275,322310894728
-1314,25790959597
-758,67246812582
11,0093576014042
-1610,42019635811
-2363,9438726306
-339,947597563267
696,756107330322
140,286142289639
76,939689360559
-80,699599891901
-145,920263528824
1534,99382561445
2453,83837151527
-35,9091125316918
-1785,30824574828
-84,682485640049
1094,96414005756
207,741058409214
-527,468724302948
-916,171488583088
-194,511085689068
2130,97341120243
2156,57308271527
-1270,74144230783
-3116,59024471045
-1131,8191819787
670,787850558758
72,481149315834
-1035,77386461943
-1970,93385446072
-1294,49254417419
2147,40528726578
3858,29251411557
1581,15348726511
365,324490994215
1511,07022184134
1133,30493491888
-305,571966409683
-819,05899631232
-1631,61418253183
-2540,33195632696
-1176,56256431341
499,350652456284
-705,408633887768
-1294,73324075341
673,394753098488
1434,3703365922
783,109832376242
646,083136558533
15,6505100429058
-1114,96231102943
-585,426454007626
67,7317748069763
-1879,89700578153
-2946,00333678722
-827,297670543194
696,119120717049
458,285083651543
314,870049618185
-106,698448508978
-449,47463530302
942,824131727219
1584,83312752843
-935,011632107198
-2594,87995567918
-1152,64570939541
-149,63716930151
-481,829346120358
-574,8952896595
-965,400252223015
-735,403551578522
1259,37999933958
1639,0891777277
-927,440666243434
-1899,62088632584
-16,7756760120392
735,346258401871
-239,349336355925
-926,336869083345
-1600,41933846474
-1110,4937787056
1608,74684488773
2536,77086099982
108,969225980341
-553,25912296772
1822,05947977304
2598,42680758238
1235,54645815492
124,717754460871
-1140,74372044206
-2003,88779067993
-392,636706292629
1206,16464158893
-355,170564211905
-1410,41650739312
550,871055901051
1798,78283858299
1102,86099568009
466,148609295487
-350,184392958879
-1222,67999702692
-297,298378705978
585,441421747208
-1331,97849820554
-2697,69593343139
-1084,44785386324
112,544419944286
-220,657762080431
-231,866565812379
-282,896436244249
-56,5037269592285
1726,94700032473
2211,61386093497
-617,675555355847
-2435,87102484703
-966,586582303047
205,218535363674
-136,641404569149
-381,021207526326
-892,25867280364
-1001,28515762091
584,93837428093
1015,42402088642
-1407,0570833087
-2683,8122780323
-509,686919510365
1382,93544793129
591,095096260309
-858,960492357612
-1904,87825948
-1316,36341547966
1327,73926174641
1925,7829862535
-811,209871150553
-2251,42769181728
-378,240988731384
1034,96705830097
53,9421395659447
-1292,08113311231
-2461,61664074659
-2710,17171567678
-285,603786706924
1898,98285931349
715,124455593526
-53,1600781977177
1345,77595704794
1203,11265170574
-182,872496664524
-520,081468902528
-816,457509309053
-1517,69305729866
-544,87485653162
845,158826768398
-725,928452029824
-2245,75571319461
-1024,37103313208
-144,302301168442
-203,242910057306
251,74518199265
130,647390663624
-634,379128932953
-7,28419941663742
531,011814087629
-1467,76147888601
-2624,51782375574
-983,422937095165
-7,10100567340851
-244,044387191534
-29,0342631563544
-177,299039512873
-173,469896018505
1437,54477447271
1764,58464318514
-867,706066295505
-2037,69786441326
-251,933909475803
685,192673027515
200,052900403738
-62,3787732571363
-773,132699370384
-1061,47884976864
1197,78788542747
2983,29375246167
1285,455692783
381,112583756447
2268,93726551533
2810,28640687466
1640,99704641104
963,524601206183
19,4539774060249
-960,719978272915
61,9342940449715
942,595720618963
-1029,46591150761
-1849,75657689571
517,906486272812
1759,10619527102
1102,5043002069
765,668904565275
164,366016387939
-819,559329926968
-94,3549931645393
906,583077728748
-919,10521773994
-2386,68255010247
-758,403577566147
552,357823908329
241,036332726479
138,982222259045
-66,3159056007862
-343,823034882545
1060,33055019379
2110,42931875587
-78,0884529277682
-1877,7299733758
-310,20226764679
1068,7671854496
414,732509076595
-298,21301959455
-709,015917152166
71,0508006215096
2575,40323019028
2827,58356884122
-553,481665082276
-2661,40908649564
-816,234659790993
1169,53418242931
534,193598031998
-889,742688171566
-2053,1715323627
-1654,89852488041
1592,07345247269
3564,02697229385
1419,23816622049
-138,012872576714
926,149163067341
946,580549061298
-176,796435981989
-622,371433965862
-1381,8202803731
-2252,66244220734
-914,64542901516
806,742632091045
-297,644753552973
-692,312624812126
1610,51956403255
2428,34339588881
1411,30237072706
936,787008166313
272,039930641651
-985,276647031307
-619,749480307102
434,445373117924
-1102,06579618901
-2481,83594164252
-968,33313202858
345,496268987656
331,260855525732
540,500505290926
396,701856642962
87,9600789546967
1339,58420997858
1976,21861347556
-437,377951972187
-2275,48337584734
-1076,59320139885
49,3922073841095
-135,096314460039
-206,033585771918
-606,169484883547
-776,548870563507
854,273399114609
1564,94792869687
-657,159826785326
-1734,08776885271
-62,319708108902
687,426289021969
37,4646534919739
-296,784936137497
-970,682014673948
-1054,99500823021
1136,52364861965
2334,8250784874
269,876924514771
-620,289925634861
1309,59993374348
1955,53313225508
820,651541799307
-15,1699944362044
-1101,21403566003
-2129,65770924091
-900,569490432739
697,977290004492
-610,629350490868
-1503,33720031381
453,988763034344
1532,61131596565
708,602962136269
92,8939314931631
-520,227934509516
-1224,55755770206
2,58457857370377
1565,66733312607
-37,0578939840198
-1530,36805856228
4,46699410676956
1134,21985679865
794,984799146652
842,066408865154
714,370995253325
347,604162454605
1496,57317554951
2124,14936295152
-509,391994938254
-2731,00377452374
-1519,59563654661
22,6407862305641
65,4380412995815
-21,6478556916118
-352,257008731365
-374,487614154816
1426,9220379591
2295,79753702879
-106,080270171165
-1946,73655861616
-324,712593317032
1517,12808561325
999,880205184221
-269,736143447459
-1423,17029714584
-1301,46442073584
974,44243991375
1709,97209578753
-802,663592383265
-2414,5037599206
-939,813197612762
422,465952813625
-221,868677645922
-1264,20266181976
-2393,93955090642
-2795,79687213898
-264,024994134903
2356,14859464765
1303,57016146183
272,485581547022
1651,20445555449
1824,16479110718
576,725096136332
41,9839030951262
-630,145767301321
-1970,77878683805
-1584,00964570045
-10,1815242469311
-923,279037974775
-1998,54249337316
-455,200468301773
646,319224476814
445,391346931458
682,413946941495
601,575267493725
-254,947220802307
93,3748467564583
630,437388896942
-1380,66099991649
-2874,60661429167
-1526,31700444221
-595,478224277496
-784,009150892496
-445,17159511894
-362,513023227453
-266,804178118706
1475,71593940258
2265,41954001784
-229,614667154849
-1856,4721737504
-391,521541297436
524,912460684776
-47,5020765662193
-329,870361037552
-790,46549025178
-761,917482316494
1596,27931338549
3193,69087415934
1175,14999393374
-105,747062176466
1586,08426326513
2315,38463830948
1365,14825192094
685,171027287841
-296,384894996881
-1110,14660507441
331,955589950085
1630,78784778714
-245,510863080621
-1324,98344057798
799,810980439186
2055,69233369827
1384,68749246001
852,188715465367
7,77979692816734
-1335,20356941223
-790,998039960861
653,252340495586
-623,8065764606
-1822,93907341361
-20,717356979847
1273,34416383505
806,185364276171
604,679120652378
360,078960031271
-143,245007693768
873,499807655811
1720,57043999434
-641,062737599015
-2950,93836775422
-1959,08094274998
-453,394382357597
-338,112980931997
-386,639130078256
-701,187979340553
-834,564508199692
824,88451987505
1810,74513289332
-353,917293764651
-2060,24720841646
-358,442927539349
1448,44050168991
700,899641633034
-713,44439445436
-1665,15212780237
-1069,94804501534
1706,87856447697
2629,94045552611
-119,322138547897
-2066,73617652059
-498,511012613773
1265,17224532366
525,455634146929
-1048,54467566311
-2367,01306633651
-2573,44782590866
92,6268997192383
2671,63181057572
1440,57906801999
182,555356666446
1669,14050525427
2191,90125441551
935,330489575863
145,586977057159
-575,973372325301
-1528,32048508525
-553,710352838039
1152,25559511781
-156,905524581671
-1694,50804118812
-309,755792945623
799,017590403557
453,507659643888
511,331590637565
402,579764187336
-395,847437947989
163,649690747261
1020,50998431444
-1060,16110926121
-3110,70769809186
-1815,24912703037
-95,0538714528084
173,741295725107
308,150681108236
72,5321040153503
-216,454551398754
1196,23577392101
2052,93050718307
-206,24885456264
-1876,29718230665
-499,512848377228
600,19818341732
214,985179692507
-68,3003759235144
-601,19682687521
-769,369780182838
873,805824875832
1571,89067849517
-580,762404434383
-1553,80503809452
473,59211987257
1653,18096154928
797,440924882889
-54,0129659026861
-984,338708058
-1410,32743453979
722,533585727215
2651,37353399396
929,847821108997
-408,024739682674
1753,12713593245
3306,76938420534
2200,94285431504
815,177690848708
-308,076704919338
-993,098138153553
468,925328493118
1864,70021441579
-148,527507461607
-2105,70239520073
-364,932566404343
1815,99636822939
1651,58315032721
844,847622074187
81,7367585003376
-356,565652549267
1099,7117741704
2118,66200312972
-267,388879604638
-2589,9649053812
-1636,31005567312
-197,379225850105
-312,863646388054
-655,983425028622
-1038,62005037069
-698,330625295639
1451,95548176765
2102,07862454653
-672,142773598433
-2761,56247621775
-633,940690219402
2566,9586892724
2379,02660009265
161,27654582262
-1572,76603576541
-891,818222999573
2237,17040884495
3033,86819785833
48,7698085233569
-2163,67684994638
-493,550702601671
1963,17656552792
1268,36438196898
-1012,12079557776
-2725,45821490884
-2372,39765590429
901,345642209053
2882,03763890266
752,118251144886
-983,572407126427
686,656171619892
1954,51844882965
655,978636115789
-876,469593480229
-1899,26790867746
-2098,19749116898
129,732106387615
2146,35402116179
307,535727128386
-1781,68125998974
-365,48210221529
1350,61131852865
976,896980315447
249,6942396909
-403,405377417803
-887,749016880989
331,169371962547
1297,26132246852
-892,91038402915
-3011,34875774384
-1837,60677430034
-142,415265917778
-6,36759904026985
-178,927106954157
-620,015536561608
-716,0279289186
902,614902675152
1456,96716684103
-1057,68415996432
-2832,40244710445
-1252,98745697737
633,67287582159
518,290524184704
-276,778560452163
-1217,08420951664
-1227,72633427382
834,559307396412
1631,3107636869
-701,519824631512
-2004,85966618359
-129,094492912292
1368,75524640083
698,132468700409
-380,379253380001
-1550,72015683353
-2097,32416921854
-127,053889036179
1753,77736237645
209,529622636735
-1452,72603501379
277,026659786701
2388,61576420069
1942,35566490889
517,329905949533
-870,328902468085
-1422,0387609303
465,203666090965
1889,43725946546
-287,532588861883
-2383,45442904532
-566,037554889917
2150,80038607121
2190,77537637949
986,236160524189
-150,526308193803
-732,813296347857
594,053425550461
1595,75440552831
-522,792987048626
-2827,71308492124
-1865,08335030079
59,6476523280144
38,1304980516434
-720,150393269956
-1306,89211595058
-1037,42058894038
1135,2898015976
2179,93786427379
-282,493582867086
-2707,96485550702
-1350,79912266135
1237,70437926054
969,243077397346
-905,422147646546
-2151,40771763027
-1129,87749156356
2098,83564227819
2887,67160069942
-153,778873957694
-2573,94352574646
-1115,91442322731
1509,51393663883
1133,82915744185
-1050,32392032444
-2717,8879891932
-2083,26439711452
1235,68220627308
2687,70409044623
293,249936625361
-1347,2709005475
118,486577481031
1126,62371367216
-30,6244774758816
-1300,38570614159
-2305,22169528902
-2739,30856221914
-675,545813202858
1702,8125102222
587,012538909912
-1277,56499351561
-54,1928598582745
1880,14165681601
1645,09184655547
463,366351440549
-710,398731738329
-734,965353250504
1150,28707277775
1232,47505134344
-2022,45556803793
-4193,24189771712
-2360,18515580893
446,963617682457
965,670506298542
188,92499602586
-959,932791680098
-1471,83664548397
117,451348185539
1017,68476912379
-1049,42437119782
-2468,40510600805
-732,172075927258
982,146316945553
509,750947326422
-536,149023495615
-1546,84265893698
-1603,61011683941
660,441036045551
1996,59896299243
-173,095177672803
-1721,52900828421
254,088031351566
2036,09124463797
1210,32432442904
-157,555610738695
-1214,15824857354
-1210,81343990564
1167,85923075676
2691,17527368665
460,928158998489
-1728,18777891994
-331,977316170931
1761,94291245937
1505,37482026219
332,49539488554
-772,972181558609
-1181,01619809866
597,748526215553
1903,45763108134
-236,819401502609
-2419,31370390952
-870,648764997721
1714,7547352314
1828,13977199793
733,778086833656
-324,749344721437
-872,788679182529
459,457420170307
1495,90754538774
-589,010609574616
-2874,33334501088
-2002,51897972822
-263,942053198814
-228,331138402224
-740,423137851059
-1188,98075909913
-771,498182535172
1520,59715765715
2428,2158408165
-43,9072777479887
-2031,85607364774
-653,845544248819
1199,37507563829
725,696274906397
-597,511870361865
-1692,8832718581
-1450,86109113693
1268,73617291451
2884,56702947617
872,889673471451
-716,578705623746
1060,98522862792
2685,94521272182
1535,9803199172
-267,306639321148
-1573,36374118924
-1595,73555788398
900,906776249409
2500,39781352878
196,659052960575
-1977,26772914827
-305,612809985876
2055,36838328838
1830,79288712144
562,547439210117
-650,520505324006
-1496,47178170085
-89,0583745241165
1748,30126363039
230,551382645965
-2120,2995531559
-987,001782804728
1566,51956194639
1837,01953756809
793,994182638824
-255,645765483379
-916,199897527695
253,215667963028
1256,13198122382
-863,014736384153
-3190,88826036453
-1833,68724414706
766,178012311459
911,760909289122
-131,954582743347
-904,389924347401
-1026,93395492435
874,533635377884
2573,38926336169
775,011528044939
-1766,6335220933
-988,69807267189
1059,17275428772
824,054288387299
-528,65259809792
-1524,0305994004
-1791,46298617125
381,207519590855
2829,12509262562
1338,28815449774
-1461,6015214026
-983,822630792856
833,00720256567
648,011923789978
-456,355461925268
-1342,94328640401
-1455,71648082137
864,988021314144
2955,10488164425
1058,82342366874
-1179,2514179796
81,3083240687847
1623,93140769005
1074,30388358235
223,003603920341
-547,948499947786
-1304,67876470089
-41,4137114882469
1609,79582211375
-131,659592911601
-2084,25328445435
-512,854150891304
1287,62112218142
1047,72106087208
592,661327078938
125,873888909817
-1119,86100634933
-1133,50780302286
-115,663622260094
-1532,24318143725
-3459,9404284656
-2443,49391821027
-728,710537135601
-377,391310721636
-212,554060220718
-311,940134301782
-791,116055369377
255,260464370251
1345,86801788211
-595,464903339744
-2792,19106382132
-1422,47876599431
947,152663707733
826,724040210247
-452,0570641011
-1528,45752453804
-1486,11751055717
862,392624020576
2181,58084127307
-256,332990124822
-2625,82246983051
-1516,18304738402
356,281585812569
37,0024222135544
-1194,61985114217
-2362,68553102016
-2949,91471222043
-820,577975332737
1979,43938609958
1213,64967682958
28,7956335246563
1591,22405916452
2185,82438391447
736,209432214499
-237,654040932655
-876,287572413683
-1857,91836151481
-985,404800593853
1029,96763071418
123,261036634445
-1229,87805174291
140,950994819403
987,310590982437
326,064455032349
239,077181950212
189,418463587761
-292,545997858047
505,312789916992
1075,33842885494
-1478,15720152855
-4002,69722791016
-3068,64868271351
-1226,50676870346
-620,552780300379
-253,779887244105
-393,840731874108
-1339,6631872654
-743,575018644333
693,11667945981
-530,70329284668
-1903,33016987145
-473,507485181093
695,17890894413
236,178016513586
-149,796599552035
-660,9382378757
-1228,25566703081
86,3536868095398
1515,9505841434
-184,538192778826
-1910,48047862947
-682,552904307842
466,640711784363
-28,6735983192921
-520,901383206248
-1094,4008705169
-2172,44336432219
-1338,3593338728
962,914580136538
549,077993750572
-492,741776958108
1063,03577190638
1929,62114536762
848,034497410059
220,274071782827
27,5970162451267
-695,812584638596
-50,3297914266586
1598,91225793958
360,595524564385
-1529,28147248924
-513,342262208462
437,895944774151
-112,10176756978
-112,518756896257
182,015636518598
-462,79463660717
-194,536406874657
1132,95345115662
-85,4026146680117
-2137,86958688498
-1182,44527348876
367,90447562933
188,265825331211
-10,0132494568825
180,067386075854
-213,698583185673
539,120082259178
2217,19314038754
1020,20283013582
-1186,40072056651
-492,408448964357
724,037075400352
261,829786241055
-195,453734740615
-350,030172258615
-964,638107985258
186,299630761147
2674,31564345956
1928,2240139544
-18,2438430041075
617,396496295929
1039,22133940458
143,028385639191
-42,0891287475824
-68,4698951840401
-830,785705029964
-192,832972168922
1291,81911450624
-42,1106090098619
-1498,22871485353
-279,035153895617
283,92137658596
-179,466728061438
252,201772123575
456,578450784087
-893,6704672575
-1330,81228387356
39,4056701362133
-468,686785653234
-1296,625186041
266,939672470093
1038,30049484968
480,625537365675
754,260313048959
993,125842317939
-182,634392499924
-491,142961978912
816,524616628885
46,2431713938713
-1220,00812391937
44,7842841148376
807,499885261059
202,684615075588
382,113600075245
705,710741534829
408,096043407917
1398,85650587082
2469,20042854548
144,830387055874
-2417,63671147823
-1677,1418915987
-462,945769369602
-291,726725041866
82,0904278457165
-27,4634666293859
-1046,88193523884
-564,953854560852
866,65816193819
-262,397926673293
-1613,41002430022
-407,308615088463
415,177594423294
-135,232175648212
-395,251908168197
-844,3162535429
-2032,80145025253
-1342,72482901812
1193,0960611105
1242,44859907031
485,235107764602
1813,18982493877
2081,57602846622
785,12058994174
225,991332784295
-195,180138871074
-1460,48768568039
-1173,38101154566
824,665568768978
382,112509295344
-746,095129713416
408,9927765131
805,609451949596
4,08233252167702
148,863946542144
362,358180344105
-330,086171090603
136,619137585163
1255,5197083056
-573,415017291903
-2993,91089871526
-2265,55519258976
-736,843867301941
-405,140225827694
-121,328001394868
-72,949071854353
-1030,82146209478
-736,802534639835
996,791006296873
400,427517622709
-950,692756816745
-122,527170300484
379,721230447292
-177,082645475864
-88,9004011154175
-85,4505300968885
-916,172828733921
-244,395261406898
1577,01659274101
717,849047809839
-792,589003577828
-208,196688592434
-76,5618388056755
-633,567658752203
-351,583541482687
-323,993205279112
-1540,19530314207
-1353,78294181824
824,51951366663
972,877178698778
604,470176354051
1925,27523949742
1712,75376003981
507,850270926952
771,401471182704
1124,3259601593
-204,259226202965
-790,162816405296
655,136388897896
532,729101538658
145,725344881415
1459,41803216934
1226,90998154879
288,323215603828
1160,65627686679
2117,37138111889
1348,88790422678
889,632653653622
1215,72278249264
-939,237121045589
-3502,08216078579
-2967,38623577356
-1681,80098360777
-1042,17537432909
73,6584859937429
764,295129671693
-208,943210542202
-485,668021798134
767,190835595131
17,2070570290089
-1493,59010481834
-1097,42770010233
-971,896812438965
-1311,7069414854
-645,28862541914
-171,835349470377
-972,510759949684
-703,478620827198
911,929640591145
164,746933549643
-1250,29080866277
-377,057365119457
198,789959967136
-335,861098885536
-429,219038546085
-774,926680669188
-2030,89210218191
-1705,03045129776
324,537108957767
172,376175001264
-821,788802742958
585,473875522614
1851,43261325359
1059,83508133888
144,106886401772
-432,90726570785
-1775,73905104399
-1811,60580581427
479,925521492958
1077,80965149403
380,09691002965
1373,00617304444
1624,20451015234
265,532209575176
-167,710616677999
208,791184693575
-554,303698152304
-872,374261081219
936,765938788652
1285,57839819789
4,11362178623676
100,178874462843
-62,9630991816521
-880,758404672146
-284,029811382294
888,949112564325
567,019868522882
329,244221329689
1319,48799675703
267,660663992167
-1583,46566705406
-665,928112000227
502,096773445606
217,521269351244
561,927886888385
1407,99288393557
941,986176729202
822,329387307167
2041,06543642282
1094,59725126624
-1037,4846765697
-428,005416154861
886,825014829636
567,46824747324
350,280708462
534,86607195437
337,535354048014
1756,25493961573
3796,3817358613
2363,48868203163
281,222404032946
952,934992223978
1272,66065216064
462,609366774559
513,13262295723
643,428686380386
-207,443257510662
251,082624852657
1855,27005505562
570,157318323851
-1163,92648823559
633,88737654686
2560,90025997162
2228,85381835699
1632,98391439021
1062,45327480137
335,402877151966
1172,13911676407
1927,41419041157
-372,964342281222
-2856,73273546994
-1459,54464188218
1711,26379829645
2522,81252080202
1541,09534475207
274,809291109443
-892,121189892292
95,5749034881592
2122,02151572704
1254,13013741374
-675,94609361887
227,879156112671
2006,71178257465
1678,88761538267
461,64250227809
-587,850402489305
-1100,43483629823
669,612472176552
2811,99287962914
1751,448919788
16,3574449419975
1056,22589316964
2302,67239189148
1387,17174977064
93,870588183403
-798,665736287832
-896,547043085098
1279,54010820389
2944,56002053618
762,887194648385
-1500,8913308084
357,906471639872
3010,7097197175
2580,6094391346
876,809726446867
-409,993240475655
-1227,25704362988
368,758574426174
3018,4493907392
2045,34920924902
-750,739243924618
-435,838766932487
1602,82877463102
1796,92515197396
959,902343422174
259,160228103399
-603,650875031948
83,2531572580338
1557,27629444003
88,9493517428637
-2468,09114931524
-1530,80055209994
1193,78024917841
1589,30536904931
515,249142870307
-299,904841557145
-1187,69374251366
-485,080590009689
1524,01742401719
701,776548027992
-1821,13007768989
-1661,56857204437
-268,575222671032
-515,140847504139
-1109,19840575755
-1227,70346775651
-1225,39515343308
622,402498543262
2811,32848078012
1254,84579461813
-1276,1529673934
-1307,85109728575
-1324,09426289797
-1901,62090152502
-1460,81626610458
-1045,72347591817
-1975,34299951792
-1725,84637516737
388,075567603111
172,667949259281
-718,413145035505
477,398350059986
605,893497049809
-164,067173302174
303,952853351831
603,094944700599
-1096,72620463371
-2328,63470083475
-879,015739768744
-230,860419183969
-210,29144179821
1082,64659520984
825,193585276604
-163,15085747838
702,043439179659
1680,86054252088
529,665767878294
-681,880410075188
-544,993091881275
-2124,91399228573
-3865,05888336897
-3116,11883413792
-2459,60281300545
-2013,50602704287
-345,544110685587
818,121590256691
-292,690167367458
-1225,3793027401
-347,315034985542
-1066,50802080333
-2663,14799438417
-2253,73201727867
-1805,61914628744
-1928,95562720299
-1225,1344949007
-698,81166434288
-1742,30104154348
-2096,92931228876
-598,274607539177
-694,302764937282
-1598,96544541419
-919,04059690237
-856,170795559883
-1520,93939685822
-1225,70079761744
-1006,21370328963
-2130,08212178946
-2184,72010374069
-218,62362575531
6,16472734510899
-532,391025394201
621,600363612175
719,650282382965
-511,486239910126
-829,475355833769
-839,240928858519
-1842,89016926289
-1722,90066301823
194,430437266827
-18,2763212323189
-1345,04573649168
-107,262754559517
1214,48618388176
426,770834505558
-393,21130092442
-612,605692431331
-1765,82690191269
-2373,24441462755
-144,527555048466
1655,96606566012
1451,50361122191
1301,83152145147
116,403465151787
-1338,83780926466
-624,292834043503
888,912551090121
568,121827095747
-211,653262257576
517,807224094868
-164,128952264786
-1995,41318185627
-2027,34282752872
-1887,89220494032
-1912,47560673952
-546,085038006306
859,01040892303
570,410898447037
587,361539363861
1609,73412340879
257,671206116676
-1553,97612711787
-659,210503011942
24,5967684984207
-437,043364822865
-150,193934753537
199,14768871665
-596,016794711351
-201,48305273056
1882,64970928431
1544,88378369808
322,181412875652
1392,85520973802
1837,79941320419
956,073100686073
858,204723641276
810,733171775937
-639,155940502882
-1154,89553767443
365,497457206249
6,3018261641264
-1027,28621511161
526,586563885212
1639,25947284698
1100,23461264372
1056,60726177692
1111,16448442638
247,981666535139
530,928734302521
1793,77319437265
169,856305301189
-2554,80837546289
-1815,19521817565
564,8679895401
1198,98844087124
947,740296155214
546,266165420413
-730,529317528009
-830,792378604412
696,803558290005
95,3644864559174
-1548,10738556087
-602,113079756498
811,968472778797
414,755525052547
-158,624452590942
-370,985279276967
-912,782309770584
108,059570848942
2252,00801986456
1540,79400160909
-307,547335520387
247,896161884069
895,512605965137
27,8868269324303
-532,528433308005
-670,893690675497
-1117,07660013437
196,410842120647
2664,28034472466
1987,31666870415
20,4459738582373
300,654751449823
622,726936578751
-56,1019304692745
-148,486842408776
-191,917524799705
-1491,51263612509
-1744,51379555464
118,3549926579
178,96279387176
-672,369122281671
1053,10749447346
2543,10251659155
1795,30813711882
1163,32665862143
1121,54102912545
-50,6036758422852
-830,703667163849
445,254975914955
319,691170975566
-1380,09515069425
-776,975943028927
636,925086259842
431,503640443087
372,226037964225
956,067580029368
327,656765699387
-255,418461561203
770,795085459948
301,490684404969
-1704,24511030316
-1601,69235095382
-667,562492191792
-994,038295388222
-886,62078781426
-45,7460756152868
-106,745786309242
647,758003950119
2843,11497890949
2304,29462336004
418,744270414114
662,363572180271
333,098095476627
-841,851517558098
-376,907507076859
678,828777253628
171,088322132826
-5,87755984067917
1420,53982657194
881,198816895485
-487,258115336299
-151,184197694063
-617,117860138416
-1230,92235416174
-21,8712616860867
1115,89130873978
-224,844032466412
-2102,09471613169
-1073,69094383717
237,420126438141
218,732437387109
1097,57290408015
1379,68226641417
750,591714441776
1302,39206367731
2019,647540465
592,268397629261
-1363,13054126501
-752,626687705517
-239,687344133854
-1289,74648998678
-1133,61608380079
-742,462464094162
-868,21282941103
100,548690587282
1204,84952117503
171,874593555927
-1593,37832325697
-908,781700074673
119,12833404541
-140,220489934087
271,492780685425
185,199280202389
-530,296030282974
227,231858372688
1440,53686086833
925,320373296738
374,260198235512
1285,57291471958
380,046603262424
-1595,00884923339
-1300,97053724527
-729,547877311707
-1015,49498420954
-512,943295717239
152,213371396065
-535,055474698544
-426,07641595602
1532,77205765247
1450,9370688498
187,600527748466
738,434891164303
662,091177463531
-536,223429858685
-753,011864840984
-583,646358639002
-1777,84893190861
-2463,66734021902
-205,769013941288
1455,09067901969
1183,4549485594
1846,47205898166
1995,36605370045
852,25574940443
694,113083064556
1104,51490522921
-21,8780214488506
-1150,65562278032
-176,581448316574
-19,941150188446
-1128,05358107388
-304,055184483528
978,693931996822
715,559149980545
735,205723375082
1388,70041880012
925,300560951233
756,261809051037
1813,98223096132
601,50584846735
-2034,24898010492
-1920,65552157164
-599,487029194832
-581,532747745514
-527,93002012372
-56,9923780858517
-384,145810127258
269,090322196484
2230,58169573545
1482,64286872745
-812,055673740804
-737,168512582779
-124,252499997616
-721,471670806408
-1024,06736388803
-1020,49124424905
-1737,40424373746
-1249,20448023081
693,929516971111
213,211387753487
-1818,42339389771
-898,804014325142
1632,83709430695
1779,90911281109
365,442322641611
-851,687666751444
-2315,879868716
-1940,07823556662
1135,92214339972
2211,02071371675
1231,08944476396
1910,32383871078
2242,70805895329
850,203806400299
232,909211814404
556,918669819832
-336,000287920237
-1221,63939261436
198,491405665874
759,896873190999
-639,353603214025
-491,551026761532
267,633809745312
53,5742675662041
658,169665798545
1816,05346931517
1321,59476998448
518,331799328327
936,71907889843
-390,613295167685
-3011,15174269676
-3014,04020693898
-1503,2157381773
-877,450042307377
-212,471090942621
538,787264637649
173,271469473839
643,715057075024
2299,26148539782
1145,45285129547
-1579,45560148358
-1241,03614678979
607,730078935623
766,286440730095
269,060364931822
-87,5101883858442
-1067,16994327307
-625,702854692936
1521,65235418081
1236,7930406034
-770,743684396148
108,161683470011
2525,7253921032
2444,43955254555
897,491891205311
-222,810990668833
-1739,91236537695
-2269,79422545433
-498,561058759689
81,1745011806488
-1086,45005130023
-460,742709934711
639,140829920769
-194,896309196949
-979,85396745801
-726,561736628413
-1162,05317822099
-1070,75320929289
1380,45222949982
2407,69562506676
511,028454728425
-353,856839358807
-200,130768358707
-749,582306444645
-547,722612380981
392,989842027426
-122,070611387491
-924,870253622532
242,361980140209
447,537903487682
-1315,75099568069
-1360,38491767645
-389,106648564339
-555,740803062916
-328,60597640276
554,031033545732
18,1051742732525
-792,341921687126
598,448911309242
1330,6052069366
87,2857732027769
1,97705897688866
241,644463896751
-423,92769497633
-129,39437943697
763,803423263133
272,758220553398
146,642351686954
1525,23061281443
794,521719574928
-698,057685300708
115,676635742188
324,243915557861
-378,600874483585
333,106090664864
1267,94465785474
-10,9432808756828
-1700,50310838223
-285,239100277424
1486,28371277452
1767,28689160198
2555,96235090494
2146,88473898172
885,689947783947
1529,09406399727
2796,89409555495
1745,73961880803
-765,374599635601
-1327,43501615524
-1397,81932246685
-2540,44344800711
-2276,29843360186
-1416,35348427296
-1194,74628359079
6,21940100193024
1588,11735168099
1237,64390549064
285,403159797192
642,064951062202
-424,625583559275
-2700,80739039183
-2512,82106852531
-1168,71617376804
-951,254335820675
-656,90614515543
-157,846186310053
-841,701135337353
-888,955547094345
778,439046561718
641,012194931507
-803,215953990817
-483,841777890921
-263,997209489346
-1311,20800846815
-1765,65503954887
-1621,9578050524
-2136,10214486718
-1410,23441517353
1163,11831051111
1472,29495361447
66,9862291738391
203,990144789219
200,812308132648
-804,292330384254
-1150,13050922751
-1236,24316285551
-2605,1134454906
-3154,63415414095
-706,113500475883
1000,66524082422
824,785231046379
2009,24869120121
3057,04441422224
2000,80074864626
971,451441496611
643,641314134002
-697,73622700572
-1677,86868971586
-9,97887653112411
927,661829262972
-481,013932034373
-348,890504688025
937,080586910248
892,062776625156
948,537717610598
1574,43840572238
961,708984643221
336,463381528854
1047,51286077499
123,395495384932
-2140,12806898355
-1919,8665895164
-407,803981423378
-169,458833217621
46,8555082678795
721,466609232128
384,349696367979
640,966777741909
2396,76447784901
1764,31857615709
-1089,46767770499
-1360,0467851162
386,985898554325
571,682536840439
-57,9742215275764
-277,213070228696
-755,612643778324
299,264378190041
2620,32196736336
1683,99469271302
-1289,95997965336
-1266,0021315515
447,828059732914
447,339784741402
-207,475006014109
-533,887993216515
-1858,71370854974
-2372,43965965509
144,738728821278
1905,74781823158
1911,59994951636
2829,05210873485
2412,4894785881
545,658061265945
422,314315855503
1417,64420955628
719,365494906902
-838,354540288448
-31,2908869385719
907,205083608627
-285,31944783777
-529,458350688219
59,6327106952667
-4,10496950149536
868,134809762239
2235,47264946997
1596,23103734851
92,42526948452
208,879661381245
-490,753211557865
-2608,68965759873
-2168,69885620475
-181,467071652412
186,323538899422
341,830551713705
1059,4472193718
495,236738473177
-13,6736242175102
1640,08737498522
2006,5043245852
183,700399130583
76,5654076933861
602,551514029503
-180,02950656414
-258,256679952145
522,635591223836
267,063010156155
345,974465548992
1403,42756402493
-11,9512621462345
-2312,19192098081
-1926,12620276213
-1297,10488927364
-1711,21871083975
-1335,52434167266
-652,113249368966
-1632,14069098234
-2546,4065528512
-355,956259846687
1795,84410509467
2008,12552406639
2785,70507547259
2497,56568866968
679,520647525787
232,52971804142
773,473062887788
-254,635677427053
-1955,44417119026
-997,937143564224
559,052034199238
226,108335480094
295,385397195816
311,809301316738
-421,60823237896
218,092819601297
1652,91568861157
1089,33899310231
-781,90396040678
-829,48789203167
-713,979501217604
-2079,30457759649
-2284,39567342401
-1730,87385571003
-1611,95257937908
-469,743219107389
1072,14855284989
747,249481767416
-86,3926775455475
375,303855955601
-491,812190055847
-2140,03958909214
-1607,35969090462
-926,600506484509
-1410,33141666651
-1260,7139351666
-677,095415920019
-1258,12696516514
-1185,12465721369
794,08455747366
1023,46212396026
-81,5165490955114
503,53811776638
684,464695572853
-473,600675225258
-865,581462174654
-702,282268494368
-1792,5730420351
-2407,24051570892
-262,842003941536
1221,70888841152
895,553092956543
1794,59922400117
2353,8346658349
1094,79849761724
430,821906000376
655,96149109304
-327,419020682573
-1318,86815780401
114,491456925869
888,321984112263
-490,135497815907
-378,43893918395
573,131527721882
272,238289356232
429,051625072956
1245,05232347548
487,547222465277
-1047,74433511496
-836,895713865757
-751,732847630978
-2042,08602915704
-1873,22410482168
-796,726181209087
-803,093771994114
-399,224314898252
695,948465913534
608,221916228533
643,11614459753
1963,15245974064
1198,03691637516
-1448,22143822908
-1305,92165791988
764,271730720997
781,668679356575
-206,926607370377
-459,25342399627
-688,56335735321
514,126135587692
2812,84280627966
1874,44970920682
-1447,17923233658
-2028,87574592233
-365,848177433014
-104,285367786884
-765,701176375151
-1165,41577836126
-2252,42162650824
-2134,71902608871
836,623104453087
2268,00524955988
1178,45292832702
1380,95050731301
1589,43313491344
410,622731149197
10,3502204120159
323,612843438983
-771,123218744993
-2040,89520484209
-689,522549033165
479,916370272636
-600,636694975197
-440,221789300442
711,981238722801
601,997290432453
729,872684955597
1426,54316773266
549,711423695087
-1008,67696094513
-418,910668253899
58,4296697378159
-1413,56967689097
-1617,95791715384
-716,210699975491
-601,735023856163
43,1532678306103
1161,13558601588
739,030369311571
89,3318476080894
923,712840557098
359,12833583355
-1784,25934693217
-1774,0434229672
-403,264222443104
-260,977446317673
-236,587566703558
194,451174415648
-498,984207898378
-779,866086602211
648,369631528854
400,07774874568
-1289,69452746958
-1036,23671403527
-460,847429215908
-1138,7219376564
-1351,75968211889
-1023,63743527979
-1761,74583008885
-1748,75138789415
924,221336424351
2329,15524756908
1910,71286762506
3006,20914942026
3396,36490696669
1817,44712007046
1093,64740410447
1362,83881417662
276,305566877127
-1155,55861228704
187,25058734417
1672,95791295171
713,386658489704
555,20283561945
1256,32470405102
927,886188626289
1172,27037733793
2094,6433493793
1282,92392605543
-542,129297018051
-328,882758378983
49,5376843512058
-1195,51911332458
-969,364956229925
114,940025389194
-15,7581527233124
533,603080570698
1960,71823001653
1746,50451987982
562,45520567894
816,965238451958
312,081994444132
-1890,64946591854
-2614,34313982725
-2359,07510823011
-2450,83543652296
-1442,65733006597
165,700762107968
176,699188172817
-64,7245429158211
1127,99118608236
729,457284599543
-1546,78419107944
-1485,77884885669
322,610953509808
374,714771270752
-451,886352360249
-821,04572211951
-1653,96849957108
-1271,92894792557
925,105038881302
653,75746563077
-1732,88752987236
-1392,91565719247
464,342200636864
192,522048294544
-1002,98600694537
-1573,40242644399
-2698,35316064954
-3409,60047245026
-1012,07122087479
1835,92736890912
2427,66216404736
2818,10778343678
2194,47230190039
198,291294693947
-293,169116437435
583,182627335191
256,426625907421
-573,005512714386
437,818889200687
717,499426245689
-1224,75591286272
-1500,42959818244
-105,596798181534
159,909814119339
385,400561690331
1158,54917442054
687,311430603266
160,402639389038
1195,30380153656
758,531735688448
-1466,50347112492
-1356,45896956325
331,903471827507
484,730950593948
257,853934496641
578,225522007793
-15,6185283660889
-49,9995363354683
1649,12504464388
1305,81336644292
-856,982122130692
-862,160549432039
-131,322833180428
-616,996887028217
-734,619165480137
-354,084404442459
-1184,75197228789
-1414,60334718227
1077,91151827574
2324,34262698889
1286,27597139031
2304,39670154452
3999,07990568876
3247,6523860693
2138,00660395622
1873,28897441924
628,077951848507
-426,47045892477
980,682685494423
1462,91226762533
-634,030552208424
-798,992120981216
956,450374960899
1253,38226872683
1224,26786914468
1849,27029079944
1277,14444190264
422,900086402893
1087,42735689878
430,229274481535
-2318,31553181261
-2438,28576937318
88,4233110547066
889,865985155106
451,992921054363
589,776173405349
232,853096663952
385,235753297806
1916,98939412832
1295,05352258682
-1684,6395117119
-2384,94888332486
-950,443975448608
-801,564094364643
-1239,93135806918
-1024,22167175263
-1199,18570509553
-313,469289898872
2133,56998419762
1976,391359061
-808,53741421178
-936,821550220251
1554,75355994701
1920,87365329266
225,541923522949
-1146,40130669251
-1826,52726793289
-323,826608777046
2183,20629990101
1258,75750648975
-1762,20696759596
-1518,96882176399
1197,7973202467
1514,89784896374
-279,502377480268
-1699,41775410995
-2941,46509248018
-2406,44248896837
934,271911144257
2464,94489747286
1045,33932600357
1359,94658941031
2685,5764708519
1704,5663293004
290,444113284349
54,5029338002205
-729,965641140938
-1276,80339831114
652,655997335911
2459,96291273832
195,891468331218
-5307,41098091006
-9138,19190937281
-8005,52633148432
-3999,7420694828
-1452,9494622536
-2867,18608525395
-7842,7414701581
-14030,7379351854
-18843,4772637784
-20662,0311251394
-19296,3238175809
-15993,8505366445
-12620,0261080265
-10561,3457322121
-10213,2178053111
-11046,2798644006
-12171,5521816611
-12354,0831523538
-10955,6658299863
-9431,9666336216
-9052,36964333057
-9399,50556516647
-10180,1517513692
-11377,7715534866
-12479,4641521815
-12711,6087401509
-11595,5347920656
-9351,71851366758
-6893,2795637697
-5171,31296801008
-4707,18548575044
-5691,10733243823
-7771,86392465234
-9999,18183489144
-11346,0804301436
-11145,8410908282
-9364,34569108486
-6731,80901867151
-4436,10495907068
-3379,62978910841
-3631,59898692369
-4775,31038126349
-6348,47901660204
-7744,2680464536
-8360,81510541774
-7985,76243992895
-6825,48274740577
-5448,13070318103
-4650,86950794607
-4672,74667529576
-4890,9160040915
-4908,20894503593
-4990,68832286447
-5274,30636874586
-5508,64425170049
-5427,32862846553
-4949,29573575594
-4254,0261984542
-3653,15715512261
-3183,89636739343
-2724,41170015
-2363,97899606265
-2214,14429415809
-2254,97541615181
-2409,72660721093
-2565,34645001963
-2666,92045775801
-2956,08005211502
-3623,99763266277
-4096,07937295176
-3761,54771686345
-2909,57565449551
-2086,09275623038
-1465,89652208611
-1028,40978461318
-782,551601216197
-765,043661288917
-967,746323686093
-1301,24516370334
-1568,94729796797
-1565,64008224383
-1238,7536335066
-669,405543446541
-27,9524893239141
430,73031049408
554,933060575277
1636,22519964725
7270,0290363431
16118,5914382115
22295,4295004299
24110,038402766
21371,538402006
16613,9543402717
14787,2335157432
15664,6704608295
15252,6174745881
12526,5053529115
10208,1745612454
7791,1238592416
4319,17160060257
3780,0647794269
6554,57201784104
9603,6900912188
13251,7961374354
16791,37233641
17057,6882483214
14542,4490444958
12005,2456417829
8146,52492697537
3662,32883001864
3010,77085478604
5165,33925080299
7400,69229584932
10411,4836315587
13269,9080922455
13314,1453018785
11923,1528112292
11198,9886035621
8384,06778983772
3707,23098165542
2944,96204510331
6373,99533829093
8678,17726141214
8973,84394308925
8812,33143016696
8051,43208456039
8602,97413653135
10447,5604945421
9125,11616353691
5363,72736973315
4914,82315328717
7517,831374228
8144,67733162642
6589,92610290647
5094,12716734409
3614,86560320854
3993,92946052551
7223,76428967714
8697,39507690072
7494,70735254139
8276,62891945243
9823,61904132366
8169,20091891289
5383,55570223927
4040,27066919953
3136,97814515233
3501,8736769557
6459,86846470833
8129,69242876768
6508,80673161149
6163,09402814507
7511,27112662792
6620,5987046361
4725,187097013
4170,36219680682
3774,02650332451
4006,61539155245
5886,17430531979
6164,49494832754
3794,53518510982
3026,98377153277
4068,03003364801
3595,44708651304
2565,28610479832
2538,6574794054
2270,47766688466
2699,30533832312
4834,02172416449
5043,7881257534
3003,68261328153
2660,2070710063
2995,99168097973
1908,03342396021
1227,04681864381
1558,73536420846
1148,84082809091
1245,51749497652
3326,29739707708
3808,13897395134
2506,87936841146
3077,62360861897
3696,76107275486
2522,3750487566
1837,92968225479
1997,42145235091
929,573942631483
-222,956218063831
1533,96509349346
3292,9864205718
2549,51670191577
3114,96340802312
4655,64147937298
4160,95994573832
3462,55645895004
3604,06826797314
2493,03769540787
702,921349048615
1055,27682495117
1495,42612034082
-219,21241860278
-317,090965300798
1586,26623177528
2189,80238831043
2466,33333617449
3296,67691733688
2678,88908225298
1370,12739145756
1435,30472415686
438,739231288433
-2247,53639115393
-3093,8904953599
-2533,0417240262
-2317,65613108873
-1373,92406445742
-14,4526000618935
-287,948651373386
-938,564641058445
237,863718867302
462,950827509165
-1429,1443862766
-1305,84731593728
408,217579841614
-193,339109897614
-1728,2373380065
-1944,88879056647
1054,50487044454
8734,44583934546
14485,8302765489
12121,3626866341
8354,25907837227
11500,7819981277
16428,7713530064
15359,5319997072
10638,836438477
6022,75897946954
847,624004274607
-2845,51251089573
-559,678696930408
5508,73368909955
9779,81073053926
9240,36839556694
4449,80609762669
1583,15792715549
4214,98176917434
7948,40171422064
6971,92191410065
-503,811585605145
-8679,06511169672
-9248,55994397402
-3666,89145767689
-1172,46340233088
-4339,6437433362
-5766,70848405361
-984,324376523495
5631,4373857677
7753,69740241766
3192,84261566401
-2458,51216077805
-2568,87795478106
-178,11258687079
-2368,34783351421
-8131,17516511679
-9639,18535560369
-4427,9042006135
2057,32281465828
3952,81702977419
248,250147283077
-2731,40337973833
223,928451836109
3031,88524737954
-1361,03764903545
-8317,68653196096
-9405,88504010439
-4380,93124070764
659,138683184981
698,837160825729
-5258,48402351141
-14848,529705584
-24172,8019195497
-29491,6718610749
-29242,6189941168
-25158,4889305234
-20610,7573683858
-17853,7256122828
-17003,1982511766
-16809,8623859882
-15933,5649728775
-14029,1128997207
-11848,4428650737
-10332,8999128435
-10047,9851878881
-11363,9218763113
-14454,0469989777
-18585,3440969586
-21869,0323847905
-22338,7123945653
-19297,837700963
-13401,5433183312
-3934,29481330514
7271,73500533402
11372,1489453316
5085,69919711351
-4232,4998794198
-10383,1081807911
-12522,444240205
-12109,1912455261
-10901,8038519025
-7864,51342940331
1066,25856804848
13337,7183934078
17437,8698282242
10121,2569725513
1746,86798661947
-95,9948137700558
2519,58178376406
4236,41863159835
2167,05813503265
13,9718235731125
2495,51671276987
7236,78111598641
9013,09105176479
6124,85002481937
3403,326998353
6211,96777111292
11903,6345436685
14461,5460001826
14037,6989603639
13652,1760521531
11648,1879059374
8149,13600753993
7822,77916762233
10770,5280739069
13666,2343769073
17094,674321413
20436,0497976411
19442,0542915165
15308,1501570046
12216,011488229
8862,87361600995
5161,80323527753
5182,03237220645
8162,25355255604
11003,8983340263
14996,8449419737
19276,1532834396
18591,424772501
13495,6447938085
9619,35033172369
6891,77318635583
3836,27432967722
4339,64211213589
8975,26758092642
12900,0438014269
15313,4795368314
17452,0539137423
16877,6404408813
14337,2920454741
13289,7837224007
10242,8909418583
3407,64077103138
863,94827657938
4775,30750882626
7689,38264977932
7980,7766572237
8473,82960185409
9200,77718633413
12319,6397798061
17611,1099027395
17750,6464736462
13510,7779914737
14741,0828294158
19380,9271910191
17682,5323972702
11766,3385463357
8464,28774873167
11646,8095628619
22460,8498365879
32796,490621686
35088,4317323565
33020,324133426
33870,4197826385
36781,0045152903
34114,7929217815
26104,6131726503
18718,7300677821
14232,7977257371
15317,8762167692
20049,5133224726
19231,9200043082
12409,0848035105
11267,8425712585
21222,4286317825
30968,1566034555
30469,5278264284
23927,4954008162
17494,5369304419
15988,7610551119
18984,5385935307
15848,1747059226
4848,98430603743
-273,829650580883
7564,0555305481
16937,0710486174
17080,5668461323
12141,7871760204
8957,90992879868
12041,031347394
18902,005633831
17466,2951333523
6950,86414042488
1703,64299964905
6012,13975358009
8412,22623062134
4496,11185419559
798,106307215523
1113,88216245174
7656,69826865196
16257,8861427307
14842,057243228
4146,43992435932
-639,504227399826
7643,30764567852
17085,7277023792
14543,7096766233
8525,60893504322
15114,301891923
29335,1612017155
32398,8891350031
20450,4930708408
6637,47388319671
3621,89437198639
13480,6923760176
22955,2319839001
16701,5609793663
2317,21485768259
909,537389874458
13622,6523606777
23717,9115163088
23812,0946241617
20994,8533873856
23708,9020717144
30138,9073884487
28073,9130717516
12299,9930368662
-7034,06519414485
-18610,0847668648
-16517,1187564135
-5067,53914654255
931,267820000648
-2519,9155728668
-3363,26279443502
4587,19281005859
10795,1500034332
6770,09350556135
-1622,88439080119
-7776,98298573494
-7666,23987984657
-2370,30365920067
-3289,05574929714
-12480,5747467987
-17072,4208129644
-14502,4327440262
-13548,6342647076
-13816,7006331086
-11696,4571286999
-9249,06942337751
-5128,49355745316
-121,298744678497
-1783,76253944635
-8192,59232619405
-10226,1842589974
-9671,39320075512
-11209,040425539
-10359,4102240801
-6561,7722220365
-4979,30691558123
-3639,84112560749
-1612,00556707382
-4228,30434244871
-8918,06391665898
-7913,10940527916
-4114,96451854706
-3312,04317450523
-1993,02745044231
165,719614546746
-2731,90304553509
-7402,45510756969
-8250,13960301876
-9579,29184085131
-12229,5265931785
-8091,76938331127
5271,8210927248
16714,8004457951
17172,7267212868
11394,1167248189
7158,45950305462
9368,90115749836
13461,0305813551
7833,3703776598
-5524,61599610746
-10489,6608240604
596,739411830902
14133,2285835743
15177,777102828
7613,95375348628
1894,25612199306
5475,07737421989
14748,9952757359
14224,1507723331
2093,46544636041
-5219,72011291981
2869,6407623291
13899,6465802193
11707,8115041256
1945,48030241579
277,065933942795
14372,7005147934
31894,8032708168
32777,0888020992
19567,686951559
12192,0345287323
22697,1175608635
43996,3938364983
61571,4198021889
79026,9097964242
101447,311493158
111716,893111467
102194,116373539
85925,3325792551
74492,6479418874
71448,1515111923
75013,2421643734
76762,4576690197
69465,1383442879
64327,7298107445
72672,9412304163
86052,3713721037
95957,2486858368
104025,672919273
113614,481772423
124610,736926556
131835,151590824
126283,203261614
93832,6975133419
42111,9790481925
18069,8833621144
41197,3664854765
75462,5911033154
91897,9804844856
93302,7559823394
92555,0206394196
98774,4839423299
111275,654114842
111528,364306331
91542,2349641919
81550,7916531563
95480,2219904065
106782,177659631
101398,426295757
90944,7622739375
87752,5443977714
96582,7680619359
114821,450770915
132202,167000532
143266,560342401
150061,161442727
148718,846570015
137323,676812649
124274,623813987
116516,218543679
114577,27694568
117859,3887586
125536,311030626
133794,947769135
138410,449426666
138002,179096222
133432,392835438
128672,691304922
128764,511340857
132966,237607017
135303,990179721
133390,702764466
130126,898578018
127513,241210356
126066,853893869
126217,882618483
127112,826625362
129443,692151085
135199,543896571
141708,733681276
142873,589429379
136944,244739413
128682,561778933
123415,915263741
122892,901050203
126110,601721361
129224,575753361
129854,001092523
130813,664150495
132810,011019334
131858,582461834
125759,040076137
118097,844700307
114351,205169261
115060,573644683
117404,52373156
118087,224848688
119500,63824296
156466,518444747
258811,034788653
338912,701045454
268041,36926353
87116,2610118985
-54105,7910324931
-105450,488528728
-122980,978204265
-147147,446617991
-128228,587269783
-33014,5114117861
59193,5681682229
56593,2167374492
-32707,5599469841
-86162,7034502625
-24411,5263743997
80913,1320682764
109684,822170377
21827,9152622223
-85567,5327372551
-114669,274339691
-88690,1004245281
-51706,4562311172
-30955,9189548492
-13206,3941595554
63021,1285003424
172679,379089832
206878,617201328
137017,126236916
49817,6485257149
-7664,86708021164
-53255,7077114582
-87792,5857954025
-114449,21491909
-100810,806765556
-1413,39882135391
123798,028658628
155923,125338554
36791,2031068802
-199028,875956535
-458003,614278316
-644522,179634571
-706081,633401871
-649024,453543663
-524083,26919651
-394249,03867054
-304421,672749043
-267329,093342781
-268087,126797676
-280606,25445652
-257943,054778099
-171503,159408815
-109095,416985512
-159252,636432648
-265237,493812561
-344117,479240417
-376135,483196259
-368216,008926392
-332740,150240898
-270429,119689941
-139217,031072617
23194,7398542166
55091,4260954857
-63529,7897520065
-198713,780900002
-274726,93241024
-295970,686891317
-290076,058012009
-277617,636037827
-245682,624836922
-151325,469326973
-10343,6579589844
96542,5664577484
137645,286548615
119344,240690231
54473,0135784149
31623,862205267
115445,044117928
222660,921230316
259028,514039993
226339,522665977
170752,429408789
133033,977044582
129511,676115036
152495,674894333
182356,976883888
201943,051395655
205641,501744032
196656,703269482
179778,691098213
162599,82215929
152750,005959511
149948,543760419
148549,639958858
142056,389089108
116529,031125546
68256,9960734844
32678,4977588356
37193,764374733
59705,9456949234
76491,6332826614
87332,1018345356
95509,8695038855
101677,870601177
97010,5752873421
49499,6320371628
-27357,9581980705
-54672,9474722147
-24247,0602251291
2287,64017629623
3361,47366547585
-3425,58018732071
666,056199669838
23666,7073456645
52618,2537353039
71372,8537046909
86132,8926428556
94117,6828933954
77647,1899411678
40406,5846693516
4639,78558731079
-13041,6109967232
-10764,1607384086
4074,20764052868
22640,804453969
36510,7878674269
39027,016367197
28527,4754018486
6697,00918085873
-21717,1902724504
-46925,7165253758
-61549,7702177763
-68543,2063823491
-75802,5399810374
-86035,6833189726
-99722,6172347963
-121660,221119106
-152620,951910347
-184103,328150339
-209175,163105115
-233788,739080265
-267217,952748854
-305478,838232815
-339009,468946137
-364417,775875444
-381260,673766936
-388502,052024387
-387391,766349792
-380865,0707151
-369666,92979753
-355053,390495241
-340744,041441888
-330167,490109175
-323306,340879291
-316412,441231519
-306978,897630543
-296792,282214135
-288710,445141807
-284494,998900771
-283466,443346381
-282140,798267901
-278993,645100147
-274998,884416062
-269865,406704277
-266272,172641575
-268832,359528303
-272291,098603353
-265657,014846355
-249304,126865804
-236024,096771955
-233370,151937485
-234696,471178949
-230684,482042968
-222752,718581021
-218937,049315751
-219375,533763289
-217693,275583029
-210228,861689657
-198313,717953086
-188588,111963034
-185970,788060963
-187322,27149877
-185978,896770619
-179759,880679369
-172529,463574767
-166391,450611234
-160179,350392431
-155414,45305834
-153095,891506046
-152689,101570368
-155641,492170602
-160005,820681542
-159464,918797627
-150517,357106552
-137355,057343677
-126271,102031544
-118320,830914542
-113814,840911508
-112592,644010663
-113736,195258837
-120476,004441738
-131485,741431028
-135407,971753865
-126705,673337191
-113929,782406777
-104766,861149102
-98524,6873797402
-94195,2025312483
-90427,7655814886
-85726,0532710552
-84204,8038434833
-86676,5972837806
-86093,8564318419
-82052,1039503813
-79714,4453405142
-78106,3071786463
-75178,171607418
-72521,4491951466
-69323,8333330154
-63216,6234157681
-56518,4419253767
-51789,8427705113
-47315,728665024
-42312,2868385911
-40264,5403060913
-42351,7349839211
-44503,7002434582
-42884,027397573
-37562,0149410367
-35028,2589147091
-39880,6939826608
-46435,0899892896
-46941,434938848
-41890,0481410623
-37606,9849669933
-36161,6966904998
-35717,2337991893
-35520,1171081662
-34359,1694974303
-29117,6470257044
-21130,744596839
-15375,481373921
-11446,8203110397
-9411,02154016495
-11110,5094377398
-13723,9169239402
-14655,5047128797
-14491,4772106409
-13395,9448003173
-9399,35799700022
-3722,63864904642
-324,100393101573
1976,39257785678
3985,3743827343
3706,43248289824
2740,32744836807
2938,53817678988
3539,17204254866
4912,58608621359
8473,19730257988
11939,6426764727
13127,5344083905
14973,8552107662
17793,5049641728
18519,6572096348
18052,9538844824
18232,7395311296
18599,5530976355
20224,4790508449
24057,9872592688
26555,339070648
26196,3604562059
27096,5946787149
29869,8724008501
31043,4783982635
30842,7882765234
30987,7667853013
31095,6630782634
32243,7573599517
35545,8418304026
37459,0237700939
36374,6317220405
37053,1278067231
40388,4446618855
42114,1281559169
42124,2960689664
42333,9255216531
42243,7944035232
42307,4876064956
43971,4095164835
44942,9128547311
43004,4645835012
42382,4642089009
45481,9476905167
48241,7731837332
49098,7321022898
49639,4934489133
49747,8892723173
49796,2908343673
51131,5516639948
51705,7092575282
49486,3182183914
48301,4917086363
50493,3993781805
52690,0307308435
53470,1759006083
54072,6940314341
54406,265472576
55354,8407100141
57563,494694531
57752,1456985921
54942,7316952217
53890,8609637171
56153,793030858
57833,3140629232
57759,614021942
57508,32001766
57174,7969002277
57835,0323170722
60271,0485056043
61041,8377303183
58504,2516186386
57093,0666479617
59094,0503945053
60808,5736584663
60333,3590345532
59349,4694909882
58529,7064673305
59230,8525123
61939,6002959311
62576,3761225194
59835,8529686518
58738,1160582155
61007,961933285
62439,4351544678
61630,1623385847
60540,1263786685
59529,7867257297
58841,6462075412
60643,7999260724
63532,8025609553
63334,5171250589
62311,2642657161
62684,2058033645
62188,2913720906
61488,6797925383
61804,541078493
61706,6534908712
60618,1624025404
60599,5827259123
61309,7748750299
59998,8597824574
58950,5964689553
59884,3033764958
60367,3236241937
60599,9959923625
61384,7403025627
61324,4178233892
60692,1846773326
61145,6055620313
60848,5113598406
58232,1208966151
56997,660390079
58394,02044487
59173,4588948786
59046,3168664277
59092,5816085967
58535,6693572253
58217,2992154658
59363,7556243539
59153,9420578778
56427,0177865997
55556,8984393328
57369,3057127297
58007,0340496898
57184,140025422
56468,6808523568
55414,0929098725
54756,5231460631
56301,0880859196
57559,8479369879
56020,9627235308
55472,9542161673
56951,3350162506
56679,7655845284
55084,6691957861
54172,7965601446
53252,5834293962
52255,7020736635
53159,5959962606
54500,8513587117
52790,8269465081
51286,5506202281
52521,5289207697
52966,9872378409
52136,0446057469
51717,5950946346
51063,7759894878
50234,1231286228
50702,1024926305
50851,2418014109
48542,8488565497
47105,0144031048
48299,6941579878
48833,3659698665
48155,8893005997
47792,2904979242
47258,879986003
46811,3248461485
47825,6996994317
48243,1081829667
45840,1450326219
44227,0301378667
45415,809014827
45859,0587179661
44630,2675970346
43553,0338563435
42698,5798003823
43039,3133341372
45249,4743694365
45577,5178407729
42342,1937790439
40312,718429774
41680,0444744527
42605,2182454169
41515,2042614073
40073,4676186442
38631,2478356808
38114,5610629916
40094,6593924165
41710,8153440058
40458,5709716305
40182,188692525
41513,2980833948
40810,8258807957
39086,5011968911
38321,9179513529
37455,306305483
36206,9235291481
36768,139561832
38029,5033473074
36317,5709182769
34634,4569413811
35746,989747256
36334,9037294686
35838,7982780784
35805,0698192623
35324,3962336034
34100,5194146335
33757,9431445003
33183,0160920024
30159,2350092679
28084,9988415688
29401,1416405439
30756,835788697
30871,9763509929
30940,208132945
30520,3954346627
30196,6414469182
31202,6066539288
31029,0611611307
28115,2795723453
26551,5478131324
27934,6116625369
28620,739738673
27727,5923132896
26857,1599203572
25866,9601558447
25626,7700737715
27245,192645967
27730,5789147317
25483,45036944
24538,6597246975
25945,8553868234
26000,0794899464
24458,6126463115
23186,2207089663
21906,2449044138
21261,4067927301
22863,5919262171
24203,0770903528
22705,8874746077
22128,0276388973
23821,2262449563
23811,2431941926
22139,6062045395
21074,7980112098
20205,0114293545
19428,2861346602
20532,0343197882
21906,2483662367
19968,9655604623
17965,3215853125
18858,9709098935
19414,0340127349
18821,8766715527
18602,6985322349
18130,6872310489
16954,7904578447
17062,2735114098
17922,5338747501
16457,8945396133
15145,1311401874
15918,8417625129
15938,6941383779
15394,7280542254
15646,7923865058
15574,9380509555
15179,8021076918
15883,8953059018
15866,2484835386
13297,6221909113
11759,3070989251
12801,8541287184
13324,9366916716
12961,7849192023
12851,3638619557
12274,8307215571
11950,6023793519
13229,4365395606
13429,6139929891
10721,6883283816
9200,34248292446
11138,3598955572
12804,8689923882
12063,5403819382
10516,8662349582
9018,86006313562
8954,8757840693
10989,772651583
11486,623243928
8979,20719805732
7837,2311437875
9847,99231606722
11051,5144622326
9789,52106887102
8102,16179652512
6683,47149333358
6080,81771335006
8068,04108256102
10395,7538622618
9347,65042600408
8341,79382622242
9645,00747516751
9621,37790364027
8247,87639948726
7631,99337938428
7116,77533234656
6333,57518097758
6941,06789472699
7756,51390832663
5874,38457706198
4406,73525087535
5753,3994615376
6553,52130535245
6103,87447914481
6097,55577686802
6035,14274151623
5857,41385951638
6838,12366852164
7041,29471552372
4328,67434840277
2365,43728278577
3081,16947939992
3523,45095694065
3378,93460041285
3680,95670355484
3476,52869537473
3240,34566858411
4581,89625680447
5211,72773143649
3184,01901309192
2344,19920255244
3858,39069199562
4224,94269648194
3428,31035283208
2948,22175448388
2059,88730581105
1257,21908769011
2660,48411476612
4295,38185757399
3446,72692129761
3266,5268676132
4484,31625515223
4078,62417432666
3096,07082700729
3065,89153560996
2620,56343249977
1045,90528520942
1081,42560502887
2859,07145804167
2231,65420112386
1040,51660305262
1853,2076600194
2106,0042784214
1965,22399765253
2663,37617471069
2695,72376130521
1316,1457734406
594,860451966524
402,468005210161
-1773,90933505259
-3239,49546599388
-1811,71342793107
-602,67180532217
-283,72551164031
296,651754323393
243,329110562801
-392,299184411764
226,547798722982
755,340685367584
-1270,43512124941
-2666,4893206954
-1471,06405127048
-887,347386926413
-1329,19151994586
-1393,59542268887
-1747,48079091311
-1971,40153157711
-370,268025457859
955,093976765871
-749,079355955124
-1991,66762542725
-376,245207071304
464,213189929724
-812,364211082458
-2210,66983638704
-3263,43456913531
-3102,74548485875
-678,695728331804
672,633222907782
-1520,14895918965
-2930,12406714261
-1316,37671920657
-531,021918118
-1661,90614560246
-2707,95392043516
-3585,44150295854
-4398,61569586396
-2919,52102378011
-50,586785197258
26,9912427924573
-629,17350064218
108,262513518333
-434,203177243471
-1512,65684577823
-1382,18745752051
-1363,42082418501
-2542,53662535548
-2820,77468374372
-1820,75013810396
-2747,12700282782
-3810,21683011949
-2897,71911111474
-2459,50036069751
-2257,374581635
-1187,77469694242
-755,520341157913
-1307,87557804585
-1206,49361097813
-1586,22208723426
-4337,7118254602
-5988,97730235755
-4475,9166328311
-3133,1020232141
-2957,17410939932
-2721,50343446434
-2903,62016738951
-3051,65466412902
-1683,52680277824
-885,147928655148
-2731,66652756184
-3813,82059946656
-2706,98392820358
-2518,69943326712
-3328,95881381631
-3655,51369567215
-4116,01680655777
-4130,47920501232
-2184,82918396592
-879,213744312525
-2464,70628657937
-3035,1567145735
-1290,18436080217
-872,38234642148
-1797,01578086615
-2379,58915089816
-3282,43701997399
-4646,44659155607
-4007,53234088421
-1846,98056265712
-2215,97446808591
-2937,58077713847
-1285,9926994741
-555,278578460217
-1308,90691420436
-1599,6384351626
-2001,49281418324
-3007,4509434104
-2715,69409453869
-1742,77133408189
-3255,0441904217
-4857,05695125461
-3714,71792683005
-2540,94414442778
-2513,98917576671
-2352,6336319074
-2451,44971001148
-2829,12649443746
-1846,04927462339
-1053,42054444551
-3090,57374954969
-4639,24654895067
-3476,65745216608
-2768,0126902163
-3082,03969734907
-2957,13428089768
-3028,96674156189
-3137,85021701455
-1756,019359231
-864,698314666748
-2957,56519940495
-4510,63910074532
-2824,64210212231
-1337,52890154719
-2035,99249184132
-3195,66132627428
-4147,05521202087
-4027,22102805972
-1836,27951323986
-695,372660368681
-2933,34427505732
-4567,25665798783
-3130,91657292843
-2053,75010865927
-2840,09177875519
-3725,64886132628
-4459,84259955585
-5153,03970569372
-3631,14792859554
-685,378203451633
-518,861824207008
-1348,00572921336
-815,654254406691
-1214,67842778563
-2049,23185646534
-1816,45526786894
-1777,74116027355
-2846,95089644194
-3018,48119089007
-2163,5159136951
-3327,74215291813
-4290,5025703758
-2532,0044247508
-1288,28268611431
-1411,58941879869
-1194,29210804403
-1147,53715458512
-1800,20279318094
-1554,74889352918
-1003,75170773268
-2492,13191438094
-3560,98981662095
-2674,23866915703
-2436,49046835303
-2599,10123702884
-1971,53183484077
-1754,46843011677
-1988,01944494247
-1060,58451575041
-516,914206951857
-2263,68953468651
-3049,44270557165
-1741,4081210196
-1493,31940227747
-2076,97217449546
-1954,08099348843
-2088,05958777666
-2466,94058284163
-1239,47658911347
-69,7417544424534
-1487,26908542961
-2199,88595126569
-944,56092351675
-918,181416660547
-1618,50984472036
-1503,17536187917
-1716,56657791138
-2919,97910177708
-2599,57731336355
-501,476561516523
-579,134936399758
-1366,93371914327
-429,324098438025
-277,006321519613
-800,723277598619
-497,697647482157
-498,386912643909
-1784,36344701052
-2071,71316221356
-714,871964514256
-1388,44022013992
-2716,45067352057
-1868,57346305251
-1191,96709737182
-1088,65818828344
-354,993058621883
-145,035684749484
-971,294692218304
-915,565777868032
-594,36601510644
-2592,61605669558
-3789,21378065646
-1918,47108411789
-696,544254332781
-961,354672133923
-938,340914152563
16,171198502183
2461,99362140894
3943,84979307652
1343,16724944115
-2863,7973824665
-4127,70724982023
-693,622306972742
3529,80460134149
2704,23566764593
-113,767480880022
2203,50711932778
7078,08545076847
7250,67405495048
3570,77437743545
940,5965885818
1101,03498062491
4904,69706138968
10390,2589986622
11259,0838854611
8267,50993601978
9179,58688612282
13221,6613521576
13963,6103250086
11704,8873541653
10360,733360149
11709,5878029764
15252,4819284678
15058,9852211773
5763,53792330623
-6286,95593660325
-8929,97379784286
70,8295014202595
9373,29926040769
10489,6789488494
7065,75317038596
6017,07486731187
9369,98457601666
10978,5230262727
5453,50464706868
-3001,48747711629
-7181,22539138049
-4127,61736103147
774,065620869398
361,432111345232
-3394,94014822366
-3557,20053187758
1184,74161548167
4234,72048131377
2003,98099521361
-1718,41348198429
-1807,4516921863
2774,24428572506
5172,96799686924
592,348584983032
-5764,30491580814
-6376,42320629209
-1333,28519766778
1968,35146235675
755,279766267166
-1717,89488379657
-1606,82724242657
1900,07513737679
2900,54547414929
-1915,13348309509
-6834,7354388684
-5632,49225470424
-828,508768394589
710,086284071207
-962,404648110271
-2724,79342956096
-3119,5497290343
-182,32113109529
2980,85222443938
374,215215457603
-5202,64290301502
-5269,42234401405
268,37582783401
3369,49629923701
1865,82115453342
-579,054514244199
-2110,53485623002
-800,128210365772
1739,98444966972
-474,605591677129
-6410,83485558629
-8206,41663888097
-4037,77074584365
-387,493311941624
-519,183781668544
-2037,26542554796
-3400,78607064486
-2247,75019699335
1812,4011464119
2446,98645652831
-1766,94583266973
-2995,46099513769
180,917454063892
1404,3850069344
-71,7570828422904
-1339,95385049284
-2293,42861437798
-1324,11072847247
2773,50492244959
4077,87936228514
-372,428091943264
-2570,48433384299
1453,92253410816
4627,58595588803
3092,13409048319
289,15779928863
-366,08619555831
3169,70101189613
7343,20395380259
4712,08148801327
-2964,69596891105
-5867,75886470079
-2486,68337404728
-238,095478117466
-1239,3346285522
-2929,40828878433
-4546,6501762569
-3896,92543292046
-211,626297354698
1627,0784510076
1270,33490362763
3113,54802763462
4596,66225492954
2500,22898572683
217,410006254911
-285,954407081008
-1395,70491907001
-3242,1108430624
-2383,06406772137
1026,811383605
3731,17555167526
5295,27319103479
4948,07047599554
2572,16918849945
1961,50444939733
3919,70360624045
4768,49252930284
3657,755038023
728,034507751465
-6340,83389428258
-14941,8195379525
-17869,6936064363
-14388,0866184831
-9995,75474542379
-6922,38840287924
-4838,46800490469
-4439,25508105755
-4160,16945368052
-3267,63563227654
-4979,34341797233
-8876,1010579206
-9877,55557969213
-7010,00467276573
-4931,0822019577
-5931,4872276485
-8065,23059638031
-9874,54459542036
-9362,88217890263
-5822,48483777046
-3456,37259584665
-4344,88542152755
-4816,74525249004
-3342,06042480469
-3370,8308993578
-6213,55793073773
-9287,9124632962
-11082,1300670207
-10533,164922893
-6438,39698278904
-2138,60286429524
-1810,04396938905
-2909,93288043141
-2125,70688283443
-1947,05231225491
-4361,29602348804
-6941,07759162784
-8082,84547480941
-7767,09623068571
-5044,60618692636
-1916,54605349898
-2198,31756022573
-3858,80503085256
-3400,46933057904
-2812,48100331426
-4019,01806756854
-5247,58365765214
-5630,18063056469
-5421,58773460984
-3468,66686573625
-1427,14147266746
-2825,40303368121
-5037,11585944891
-4636,12837153673
-3824,7085197866
-3937,36981803179
-3771,75282622874
-3605,64860780537
-3733,54483100772
-2689,66705411673
-1859,97829583287
-3964,63959096372
-5620,93949088454
-4127,47608071566
-2801,39083644748
-2781,85457286239
-2619,09120055288
-2799,64136530459
-3290,54026067257
-2276,99130862951
-1202,16746419668
-2991,01088608056
-4685,52384730428
-2777,98808291554
-233,022113770247
-72,8023106753826
-980,297467894852
-2001,34645006806
-2676,15356060863
-1637,62912935019
-998,294628351927
-3470,95007291436
-5412,35283710063
-3656,25632327795
-1491,49855053425
-1197,99441999197
-1502,43691138178
-2090,9438379854
-3505,99263241887
-3446,28760093451
-1026,60779282451
-374,447554819286
-838,949209287763
231,941187411547
329,998649388552
-471,288981318474
-113,187917366624
332,753725275397
-655,190385788679
-1329,94025269151
-896,805298149586
-2296,92152576149
-3867,75511202216
-2953,0774744153
-2000,30631163716
-1509,37640756369
-330,900126628578
372,747747629881
-67,8608797490597
256,532728791237
901,021908730268
-867,096318721771
-2459,15335640311
-1620,34482881427
-1041,08492422104
-1097,75831976533
-666,202719442546
-660,610906720161
-1174,25745403767
-18,6324540376663
1772,03735181689
847,507899679244
5,14201109111309
1335,10688945651
1506,34776106477
549,922578901052
308,848722353578
-57,1878109127283
-1203,77111583948
-700,273057222366
1643,52354887128
1928,67297053337
1869,03305186331
3487,06860932708
3393,71893697977
2036,93093794584
1859,04846927524
1952,85330559313
839,536093771458
315,06604668498
1351,75029209256
432,326056234539
-1155,69834552705
-165,064749181271
797,916524171829
823,955452382565
1512,27660340816
2075,91351148486
812,437918007374
-2892,10431027412
-6582,80874806643
-6897,05491793901
-6395,29780741036
-8528,97192627192
-10344,0432319045
-9078,93329668045
-6048,23003838211
-3515,36944963038
-2908,89156508446
-4171,83721074462
-3771,98475319147
1577,31212508678
5854,20376245677
2692,57286557555
-2931,68757870793
-4824,21154990792
-3393,86446896195
-1644,16385123134
-1701,06917843223
-1203,90701696277
4049,19746345282
11810,2274407446
16111,9197825938
13893,2412567437
8029,81770434976
5237,4041134119
6974,54356309772
8705,45622183383
6283,28600588441
-105,861548870802
-4883,12045145035
-5623,99808388948
-7443,26900874078
-10891,405885607
-10361,4701746404
-4894,04519307613
1301,00225110352
4228,88726560771
2430,46752029657
-2603,33120310307
-4735,13525956869
1493,98370957375
9592,14432775974
9561,51470541954
4211,34148728848
2085,4967456162
4470,38885937631
7090,32997348905
6245,74246382713
3669,8330168128
4901,06448018551
9869,48302644491
13527,3984737247
12421,1813205779
7991,45149385929
6276,17664819956
9197,43288205564
12107,7190892994
11461,4679476619
10239,9636108875
11707,6100970507
13425,1213021427
13520,0389890373
11168,1605353951
7541,48671460152
7778,47694849968
12123,7255054116
14890,1919549704
14790,5075925589
15440,524584651
16170,8990856409
14966,0858896375
14815,0952644646
16566,7023490667
17007,43335253
16988,0852090716
18312,9658197165
18335,4733448029
17348,2281706929
17900,8513624072
17253,0357329845
14262,5970743448
13662,159303993
19150,1233481765
26663,5314102173
28689,7539542317
25352,1573553234
20594,2288703918
17962,1279060245
19049,953361392
17362,0226837993
8001,92452836037
-706,941286325455
2513,09952139854
14331,050724864
20978,4111102819
18090,8848945946
12200,184931159
10893,7940859795
15646,7368916273
17413,6379361749
10258,7867831439
2259,08511477709
2699,05865097046
7294,62098908424
6521,64764225483
1715,73782786727
-113,867561638355
5713,63978922367
15704,6217757463
18453,198573947
12004,8034947515
7206,43865087628
10436,5928163528
13651,2569268942
8742,78330391645
365,846435755491
-3753,6049529016
921,374518036842
11007,3222732544
14774,5795970559
9082,29774802923
3758,65284976363
7870,8324585557
18103,1417137384
20795,2059234977
11760,713858515
5547,04906862974
12097,1130230427
20634,8325816393
19240,5193960667
11024,2441214621
6431,39683291316
11236,7809428573
18600,6207593679
15761,8626196384
2608,77146568894
-9985,48434969783
-12828,4637898803
-3443,67532837391
9552,91686207056
16145,7315917015
16729,3849619031
17084,1655216813
17389,225187242
13347,305796802
7204,82448811829
3089,95403879881
1375,03353446722
3250,82785475254
5078,81642490625
-193,098522111773
-7971,34315779805
-8957,21288055182
-6086,78777742386
-4323,98572129011
-1306,23634576797
2379,30036279559
5260,2663718462
8358,25584757328
6201,04964506626
-3891,49431338906
-11208,5334192216
-9354,22486782074
-5517,40214049816
-3838,3458570838
-1643,73122698069
224,309497863054
1903,74272423983
4837,67880427837
3271,31989371777
-3774,69790235162
-6444,52505987883
-2102,76020914316
1308,87110435963
1047,39031207561
500,664596408606
-549,354680806398
-908,209363162518
1772,59497106075
2823,58600479364
209,65745845437
28,3420738577843
6002,34664547443
12060,800154686
11573,7648030519
7406,5225468576
2682,97965016961
-463,436137795448
739,28989815712
1694,09540462494
-1573,12215104699
-4084,18187057972
709,280629038811
10355,5215606689
14905,2527844906
11654,2105336785
5558,44866985083
1634,50346171856
3056,25962436199
3804,79655861855
-3850,83483460546
-13042,7215948701
-12396,4972583055
-5800,74807107449
-4034,40608012676
-6372,28271496296
-7495,52112442255
-3952,10288226604
4535,59822142124
8127,80299115181
876,93287730217
-6666,75579696894
-5018,83245778084
-1529,11683571339
-4874,02640676498
-10450,5823726952
-10887,540407598
-2413,62549960613
9933,07693946362
12807,8944401741
4265,18186455965
-3738,09919822216
-676,648319005966
14335,5544903278
31675,1348669529
41643,6072878838
45176,3866601586
46354,3345220089
43601,6059641838
36978,8963487148
31923,2324030995
31106,5755459666
33248,0443116426
36243,7118954659
35125,5339335203
27547,2009279132
21705,0902412236
25825,3890069127
36586,9427335262
46097,5981575251
50763,3020198345
52218,4861412421
53219,913729012
50543,2973971963
32774,1579802632
-2060,01827329397
-31239,8770261137
-29869,0504335761
-3754,33349019289
18740,3621246219
24384,3660036325
21889,6870518308
23455,1268830597
30169,370072037
27701,5478840768
10483,2336889803
-796,476168397814
9991,28485485911
26382,0016099215
26416,913987875
13211,359892115
3580,34208918177
9825,90828076005
27868,9499093592
35975,4208719432
26485,9148410782
23338,8198651075
39000,6128921509
49907,3960369825
39081,4080792069
19414,8349647373
10418,9324960262
21676,8752368987
49654,4883418679
79110,9973612428
98560,6993109696
108971,03955248
110943,645922959
101494,417914033
84604,8755364418
70979,4159177542
66944,9065914154
72111,3630378246
83594,9360897541
96055,5144535899
104479,034172192
108385,078957498
110681,574635267
112658,480789304
114221,578022242
116717,095457032
119200,671747297
118283,970236659
113939,662137032
108745,824082792
103699,234257206
101143,964507729
104893,978841424
113387,275612891
122626,787781
131657,927409887
138263,207950667
138942,180927753
133709,366331279
114664,515605628
69167,0050846785
28754,2497281283
38539,4089581668
76707,8326499462
100527,026807949
104962,036468532
102967,082012501
107294,275563739
117305,944296902
103338,827373955
55382,1126269326
32442,1361717433
68125,8034669012
108618,940332316
108361,290821284
81742,3375415429
62585,8946147114
72109,9565281272
111387,856613383
164592,451922348
208966,391013727
228321,733376831
219552,258180439
189060,227048576
150682,433454484
121028,90306915
108375,804508299
111762,20026195
122631,647903562
110184,086909056
51541,1512756869
477,600043535233
17311,3995907903
66136,8523152471
88855,7896190882
81216,3264842611
68155,9966055751
71836,9783353806
84071,7600830793
65537,4083852172
7037,56492577214
-52571,4834377766
-73561,7547535896
-61770,5361578465
-87783,2183427215
-183502,885217883
-282684,019187689
-323954,726343393
-306199,218400717
-259977,8194381
-218825,87826398
-202551,318629861
-212894,416352034
-238339,490096807
-263279,518134832
-276168,683459938
-273165,06497252
-258218,007372141
-240458,335313559
-228528,094073057
-225670,471608877
-229022,894923508
-232362,369639158
-228082,83834362
-177108,750270844
-60819,4913672805
17892,805636704
-18756,3741950989
-95957,1894307137
-132578,387269497
-128499,308523297
-117247,876729846
-125900,794578791
-159983,100822449
-206892,162284732
-247180,676624835
-265453,215237737
-257254,058362246
-229877,858799934
-196864,374142408
-170387,830733359
-156527,856602192
-154677,456289768
-159427,393754482
-131127,768322229
1267,22963291407
175103,689277768
206162,984885693
89247,8256244659
-12412,4314699173
-22303,9120593667
15262,7511824369
30327,2132606506
-10411,8327050209
-45118,7066156864
22107,7405290604
139597,698011398
155006,648547411
61026,6178050041
5129,55240058899
59247,1735934019
151032,706682086
178916,264118671
115831,7895298
55803,7127275467
77661,4304567575
93220,7392276525
9835,87093687057
-84778,7805843353
-59469,7350139618
91067,6770949364
280403,264991879
389524,607722759
336419,900354385
164160,140598297
-6349,96265292168
-81853,1326669455
-39627,547185421
81836,3023300171
216454,24760437
304165,567601442
315043,117818832
258218,750165462
173356,68063736
107548,35631752
86680,6900420189
104057,045190334
132687,691124439
146342,920153618
132181,613895416
93502,99842453
49670,649545908
25505,5441384315
34978,8891210556
75757,1247711182
131479,582156181
175333,612331986
182912,966413021
146495,873211861
66899,7208337784
-53721,9530906677
-161314,370602131
-170284,81685257
-86570,1895546913
10935,351205349
73464,1077098846
94307,8956857324
84472,8679680824
50748,8824253082
-19870,6738162041
-120756,624513149
-188291,961396068
-170229,532508373
-100410,742866993
-49958,9170675278
-42105,1268131733
-55071,1479360759
-62637,8533060551
-55421,9215915203
-55669,5598120689
-81105,9954082966
-96592,6030212492
-77732,5630805492
-66321,6353850365
-99435,9611237049
-165694,08315742
-231953,128148884
-266148,900351167
-258049,738437891
-225477,223549128
-197375,513882875
-194687,053376459
-218507,206462026
-252353,326715946
-278040,779904604
-287172,875832379
-280718,672939688
-264419,209104776
-243808,20615685
-223332,072931647
-208556,076251388
-202709,521659411
-204408,298126817
-210181,775909543
-214365,083324432
-212545,847037852
-206484,517554283
-200935,269670606
-197127,245546818
-193465,50295037
-189936,560213149
-186537,878807686
-181855,726176649
-176050,012116551
-170589,47997123
-165431,487559572
-161188,112872645
-159583,857655764
-159514,586864799
-160700,668432534
-166034,794841245
-170848,384320518
-165737,764386624
-153709,486872897
-144409,641363364
-139767,119167916
-137485,805449203
-135045,10612428
-131194,569416039
-130921,389997534
-136260,254026085
-136932,159997866
-127469,003462434
-117894,366436958
-115956,234604061
-118260,835123673
-119447,372571262
-117757,806250602
-115638,589063555
-115303,938072205
-114944,926383138
-113048,53299208
-109841,755875707
-105127,4305951
-101527,236381143
-102401,549078047
-104516,972831212
-101974,646485001
-95002,1871513426
-88157,3772870004
-82983,0857737958
-79289,6165943407
-77094,4577172399
-75740,5311906934
-76973,2806539237
-81635,0967186987
-84762,6022233851
-81183,0043910742
-72754,3397779167
-64951,7945902348
-59344,5783157498
-55707,5009105671
-54328,5643564612
-53497,3816616237
-53619,4298129082
-57014,8269486427
-59237,8096981123
-55462,478312809
-49279,4304694086
-44342,6680054814
-40125,9333010763
-36881,3551833481
-35433,9466519076
-34370,2914519049
-34142,4347744808
-37180,188816309
-40163,1392555684
-38264,0203691721
-33220,8207911775
-28668,0658983998
-25249,7386627756
-23095,2763242275
-22356,1507650614
-20865,6501415074
-18585,9814597815
-18891,3874058537
-19746,9341485053
-17237,4210628867
-13805,1091222763
-12179,4422819763
-11455,9669901617
-10938,6598003507
-10565,7889075577
-8244,74746754766
-4217,43388040364
-2808,73950085789
-2537,77410569787
181,260779201984
2294,32563439012
1832,16094988585
1047,3253224045
1079,38572797179
1456,38176372647
3525,77070367336
7713,79618662596
9884,06922722608
9762,91925360262
11028,5566982925
12370,1604422927
11957,9990791082
11569,883676149
12070,2823284417
12568,5351319909
14019,2521302998
16948,3519324362
18030,6555485278
17205,7250368819
17833,5107150972
19003,9147687256
19103,5744063854
19367,8397022039
20189,5167177767
20745,7059394717
22285,4586315751
24851,2843921185
25020,642644152
23871,8489391655
24962,3249159753
26620,6637364328
26813,7565065622
26656,8631064594
26729,2526785955
26761,9374318421
28271,8873261511
30837,9053423405
30915,8525399417
30052,0082759857
31530,2143276334
33123,1938695014
33006,0934881866
32506,7956796736
32204,4195110798
31837,4481228888
33196,653365165
36303,7672473192
36990,3994229436
36144,5215494484
37457,6264434159
38820,5374197364
38385,5166703463
37746,8640555739
37452,4838444963
36824,5470842719
37288,2413850129
39377,771553576
39528,3320799768
38091,9124777168
39169,8600470126
41409,6336539984
41760,3902620971
41327,8675525114
41233,6361006498
40757,4744478166
40921,6876158714
41903,1487088501
40765,7093369961
38440,0176573619
38820,9601195455
40958,2049366534
41923,3934666663
42110,058789894
42351,7601171955
42292,6663566232
43174,8374955952
44540,817353636
43158,9130069464
40760,3366269171
41318,0245474428
43137,1731007397
43341,1812766492
42708,4038136378
42222,8746567443
41901,8328579664
43132,7333416939
44932,2045296431
43702,7106048316
41277,73407932
41756,5081111193
43507,6593956947
43590,4649020433
42672,4358422682
41830,8719071671
41407,6954871416
42826,3082586527
44746,6882215142
43526,5368467867
40745,9023473635
40876,3160881996
43223,9466567039
43854,099056825
42502,1400638819
40947,8065118268
39690,100128293
40224,1702022552
42466,8383901119
42692,4970741421
40983,8435322382
41366,8140777349
43183,7730896175
43060,5194323063
41598,0397536829
40504,4862753227
39659,6030348539
40234,6063389778
42257,1413065344
42132,1385766193
39973,0525281429
39917,8267762959
41504,513436377
41554,3266193867
40560,6561936438
39849,9657842368
39155,236134842
39615,0481715798
41044,5050458014
39993,1861365139
37328,9325149804
37153,9944258779
38523,5729661882
38736,1646576226
38322,5978707075
38010,6875459924
37601,9967563152
38588,575011313
40341,3218937218
39085,9612408578
36464,7586971298
36691,1016940325
38098,3674853444
37914,0143460333
36970,9729275033
36137,3891852945
35324,4076597989
36035,27602458
37470,1469632089
35869,7398017049
32745,9922177754
33019,3334036618
35766,6918836534
36505,1644180566
35065,1515788957
33390,654007487
32399,0702574551
33586,697994411
35271,1946533322
33436,1250883043
29982,8237819225
29940,1155932546
32327,4270115793
32819,4602119625
31362,6560527757
29825,8793103769
28823,1528055221
29928,6230477989
32036,5725927204
30968,308044754
28307,1105170548
28647,9613708258
30543,7591276765
30570,1812707782
29339,49061919
28242,6598776281
27175,2877208591
27554,2586927712
29404,8747825474
29084,0315396637
27157,9580778182
27316,3660019934
28372,33215186
27961,2173323035
27044,5136983469
26452,7272832692
25776,3951224089
26487,967223376
28297,6255295724
27323,5732930675
24435,7351489663
24430,4346451461
26602,5902845263
26875,5141888112
25373,3263077661
23893,8102112934
22999,7112964839
24201,5738393962
26089,0773517042
24495,3924634159
21004,8670943007
20777,0556252301
23206,895960182
23910,3219382912
22643,7585112229
21302,5848913938
19947,3438191116
19870,1695205569
21984,8708257079
22750,5321852267
21283,3914748877
21205,379259631
21910,0486114025
21238,6942699701
20476,6644101292
20349,4983039349
19719,2720997781
19479,3932948411
20576,3648769557
19955,3231987134
17353,0113557354
16770,400117591
17900,127419591
18232,5634442717
18312,3954879045
18501,4488596469
17913,7023380101
18001,7968440354
18996,8997152448
17327,8871728554
14138,429432027
14182,4014266878
16301,1941382289
16841,6636922657
16157,8375888765
15433,4614023939
14548,8147971034
15063,8667474985
16586,0508802831
15221,5926707536
12467,5072086602
12776,542178303
14492,944149822
14454,8089649677
13401,3602258712
12442,8839375526
11436,7544081211
12071,1061773598
14308,080298543
14101,5447878987
12470,9528562278
13290,3455477804
14346,6497387588
13234,4783039689
11732,7650491893
10929,7668993771
9995,90868279338
10012,6540829539
11931,3655166924
12300,7142636627
10407,0227617547
10330,8263114691
11647,6133847237
11439,6449453831
10647,052790463
10382,4151088595
9664,62823086977
9303,91252833605
10288,3579619229
9828,89357088506
7539,60116796196
7273,91029152274
8719,09387993813
8918,36792942882
8474,45216184855
8389,01267999411
7853,16228273511
7882,66771915555
8953,55336272717
7927,62947286665
5424,65104134381
5254,06736534834
6261,67482456565
6228,06991669536
6113,27141438425
6314,56714330614
6002,0919701159
6483,28102612495
7764,52174511552
6436,95997869968
3719,81563507393
3838,28412231803
5524,67668217421
5717,4832469523
4909,54411205649
4052,00507407263
3002,08619524539
3664,11599513888
6256,37503048778
6576,48126751184
5179,72456818819
5885,27230592072
6915,98649275303
6064,67425516248
4804,61535525322
3941,04890372977
2825,54814849794
2958,38135311008
4813,81042939425
4579,20068059862
2669,92334895208
3238,27082119882
4831,3139565587
4628,75643458962
3840,26054272056
3428,48277652264
2490,15496091545
2051,40763109922
3058,11781981587
2630,80073219538
432,647428132594
495,445370987058
2562,83076176047
3160,72464668751
2639,86773706973
2384,05614695698
1913,78134793043
2241,64936503768
3554,76270255446
2585,29920499027
-292,7733066082
-911,625514447689
454,724535286427
908,13477486372
659,569305881858
569,38373028487
280,639871925116
1092,27597340941
2707,53789499402
1797,57614786923
-467,354823809117
-188,220090538263
1460,01131439209
1462,76286262274
415,793595343828
-471,658277347684
-1262,34403714538
-119,978649169207
2632,09260982275
2432,53702919185
32,0250810533762
264,674145311117
2104,44680136442
2036,8241417706
713,880562007427
-386,009557787329
-1512,50125581026
-1273,22576925159
570,648671030998
343,721797600389
-1855,08628439903
-1585,44445858896
751,830775618553
1294,62568843365
267,426813200116
-556,276326451451
-1409,87293671072
-1175,20017117262
434,111124008894
-11,82545812428
-2540,94037570804
-2880,97037780285
-1015,34655192494
-292,181330770254
-759,153633609414
-1193,18255097046
-1692,40748549998
-975,237252682447
694,557333827019
-83,1216256022453
-2699,36311581358
-2952,29308743775
-1087,22794303298
-550,225837618113
-1364,50907181203
-2041,97315327451
-2447,56978411973
-1307,43159240484
667,583943665028
-158,749327272177
-2723,71131029725
-2734,55483786762
-865,696020275354
-527,391193807125
-1555,58678026497
-2551,15947524458
-3333,34122754633
-2332,97689896822
-119,243826985359
-661,791579425335
-3369,31905551255
-3658,87544329464
-1501,56672662497
-736,590699791908
-1888,23996971548
-3252,35430819914
-4473,49009522796
-3916,59132984281
-1110,52228564024
-203,281998217106
-1867,40929998085
-1789,93288260698
-309,13265144825
-456,848041146994
-1388,22005449235
-1857,00797137618
-2599,32279907167
-2724,62620511651
-1521,10926511884
-1788,12151297182
-3774,46211678162
-3894,8953486681
-2397,35088071227
-1881,64118951559
-1918,95652526617
-1779,58866262436
-2105,62196077406
-1585,73048341274
-42,0897863209248
-864,289457328618
-3406,31674691662
-3472,10971453786
-1619,38780483603
-1014,33407926559
-1474,30444392562
-1935,48693552613
-2598,43173892796
-2062,89738538861
-589,80502563715
-1646,7941134423
-4120,39539765194
-3749,85718278587
-1590,89951002598
-1082,97850453854
-1862,56906555593
-2607,26264940202
-3295,43350814283
-2428,37475830317
-412,553008288145
-960,277466788888
-3511,98697534949
-3657,04457131028
-1331,84218198061
-349,630632281303
-1300,90296545625
-2462,41178464517
-3400,49885429442
-2669,36359345913
-355,672853708267
-286,82790197432
-2654,02054808289
-3029,69800764322
-1026,94240781665
-409,084115594625
-1555,50998948514
-2635,60529999807
-3498,55050900578
-2843,8394266963
-446,369520574808
-158,414890989661
-2445,68975774571
-2804,60227707028
-856,994647622108
-300,810682833195
-1286,31461897492
-2090,20836449414
-2777,4927136749
-2292,89679938555
-467,629544556141
-717,793810635805
-3325,08067364991
-3868,84719641507
-1800,60562232137
-833,007160723209
-1413,06258074939
-1950,17900083214
-2371,31482933462
-1388,82753154635
814,514217734337
414,576773792505
-2483,09070302546
-3156,04016634822
-1013,76270186901
-15,1962509453297
-957,926760777831
-2059,41604633257
-2992,07136060297
-2304,18504989147
55,3640767633915
77,9675447791815
-2416,46334250271
-2661,50395531952
-392,801095485687
346,366894185543
-745,678029358387
-1792,86668757722
-2632,45702891052
-1929,07646432519
321,977455288172
124,86710627377
-2554,84197492525
-2921,70884998143
-889,365546017885
-207,374516993761
-868,543847903609
-1371,04448119923
-2106,20561818779
-1969,13654974103
-439,285230576992
-662,387420013547
-3024,41129020974
-3509,56112629175
-1578,20903038979
-576,20847222209
-992,836230903864
-1484,64878382161
-1876,11228185892
-837,333537071943
1096,27617812157
255,350352078676
-2618,18303190917
-2936,68751402199
-638,104996651411
395,995853275061
-474,933860585093
-1649,41864414513
-2308,45753076673
-957,956855416298
1085,64027914405
178,076501205564
-2512,59944425523
-2533,23729155958
164,172867774963
1348,93467020988
-7,55902740359306
-1835,26771047339
-2633,92939284444
-1077,99223059416
952,383008569479
70,1149200946093
-2364,52354672179
-2417,18068067729
398,850188910961
2049,4349334836
388,260929495096
-2275,58914160356
-3329,52421598136
-1103,9357816577
2028,56138679385
1627,82142741978
-1100,9361654371
-1457,18245373666
998,216235220432
2047,61874610186
377,36524541676
-1640,91399683803
-2537,01780794561
-887,369034647942
1953,51712462306
1574,18051987141
-1464,47996008024
-2450,01422791183
-544,061713188887
748,675258129835
78,7779693901539
-1108,12454639748
-1848,10240599513
-632,530025810003
1481,1510771513
588,304478123784
-2432,99480637163
-2965,70367796719
-685,813511162996
584,511380851269
-163,301543772221
-1375,19474491477
-2132,70466925204
-895,991117656231
1188,34270218015
448,118697278202
-2125,44136444479
-2190,94719538093
470,085730671883
1755,00712792575
419,413023427129
-1475,39546070248
-2406,96091020107
-939,336868554354
1133,58395364881
-27,9068284854293
-2956,64232620969
-3074,38948507607
-457,549011230469
680,99648667872
-546,00392857939
-2095,81149777025
-3051,23446249962
-1576,94666606188
1596,80546736717
1617,09002808481
-869,673159051687
-1015,51401400566
476,678325325251
477,126758798957
-348,269037112594
-830,465055674314
-1483,82547724247
-1020,68034768105
565,354588016868
-335,763033680618
-3039,61035939679
-3053,86466763914
-873,556982278824
112,282198339701
-77,2363795414567
-470,54093310982
-1335,72507065535
-988,238091051579
780,469165623188
150,234044142067
-2536,64037460089
-2623,78658209741
-299,107454121113
710,96966868639
245,289272710681
-383,402180694044
-1328,95361037552
-1002,9444462955
900,510701358318
601,280353710055
-1883,77804486454
-2182,18293629587
-300,760828465223
441,692847639322
-57,467685431242
-636,639426551759
-1424,13702793419
-799,745229512453
1271,25824487209
906,299174889922
-1542,25074076653
-1586,55835467577
451,479142934084
963,55583935976
35,4019321501255
-804,717387385666
-1714,9274096936
-1109,60098513961
1556,85670101643
2197,01628597081
369,808209873736
618,751348674297
2513,07373657823
2353,46410873532
931,833897471428
123,598390504718
-645,870243534446
-508,641195893288
1232,65290796757
1308,83149549365
-1172,10413927585
-1811,13426847756
202,026282966137
1170,38095736504
797,113265797496
605,387162312865
244,671305388212
756,488354563713
2376,79528769851
1678,32197828591
-1412,16395991668
-2426,86290256679
-737,317590504885
248,663393855095
-53,0508273094893
-408,664610069245
-840,811551004648
-48,6109271943569
1829,77548524737
1240,07580690086
-1519,05174905062
-2138,82556416094
-293,124363541603
596,650951683521
-112,03135997057
-1076,0049944371
-1741,94586157799
-502,741490244865
1799,8526211381
1296,6951649189
-1299,80255141109
-1547,37497156858
1319,4650862515
3183,1332013011
1810,80864240229
-710,623797368258
-2194,47936750948
-638,441224604845
2510,07388392091
2443,89244177938
-231,207105122507
-450,982411846519
2346,01854166389
3572,09698748589
1743,89558166265
-579,419299934059
-1879,37760820985
-527,668628126383
2599,8790435195
2737,96426601708
-194,239187553525
-1244,21722798049
736,996650338173
2031,05510360003
1208,22889409959
-105,368275757879
-1022,98817639053
-98,9748517274857
1900,44686719775
1080,40979380906
-1933,83401863649
-2442,26519241929
135,168948233128
1707,35817161202
860,615277275443
-481,999613851309
-1171,40569575131
6,42308071255684
1931,3590246737
1045,8087721169
-1845,69603445753
-2492,35364586115
-451,516202390194
668,270401984453
-203,066547498107
-1418,57123618387
-2134,61068657041
-841,922770023346
1637,30387964845
1303,4553322047
-1364,97311630286
-1760,74297359586
818,577307581902
2189,77713829279
754,334135219455
-1284,29323352315
-2641,52884440124
-1520,8849658668
2004,42991477251
3052,50152856112
606,237371047959
-242,159503489733
1530,82466301322
2026,91298276186
899,496065333486
20,5396126024425
-868,845059484243
-934,285062640905
731,807993978262
1048,11513708532
-1243,80175734125
-1881,88319851458
102,291790217161
1017,18526050448
593,104837238789
400,365281242877
-147,926703736186
-420,775921016932
914,101617157459
1191,37667568028
-1219,92068123445
-2248,9582400918
-741,63785302639
49,4735869169235
27,8525199592113
246,736242055893
-195,471690967679
-361,219458460808
1054,76335567236
1077,13675391674
-1112,41130561754
-1345,27109616995
251,097502589226
539,814387440681
256,496527522802
440,345996402204
50,0751126259565
128,936011761427
1579,74534061551
1127,06745716929
-1413,48795640655
-1837,72790654004
-445,249851316214
25,9797050356865
97,1720588356256
286,974967593327
-468,50916108489
-693,803007632494
969,389028429985
1094,9315957725
-947,403913382441
-1007,09865561128
550,116677671671
808,083634614944
454,477084740996
290,937502980232
-677,922622263432
-1195,09385573864
199,744022965431
502,765209957957
-1183,09982798621
-915,08427131176
991,304405033588
1178,94385462999
392,168151512742
-15,966825902462
-775,753774553537
-708,38784211874
603,448461532593
-262,576251238585
-3136,08466665447
-3384,51860523224
-992,774254441261
86,6717361211777
-431,481355473399
-975,286402285099
-1679,78596001863
-1204,58748078346
1064,84080258012
1619,20261572301
-357,403986785561
-879,849747419357
594,819224923849
773,014341026545
-413,482699126005
-1322,85724848136
-2069,32401761413
-1343,95170915127
1123,26543581486
1559,99848070741
-688,103834731504
-1417,55342009664
308,307709306479
958,205275535583
-315,921677619219
-1669,39038911089
-2749,633608073
-2323,80043873191
546,361131489277
2105,16110697389
550,55774901621
197,36799018085
1809,12746945024
1797,7560005486
565,913368523121
-34,7421777639538
-693,143001452088
-992,102330684662
641,998586237431
1780,88034117222
-4,82770356908441
-1074,76131303608
169,903642416
728,893602341413
586,596726566553
871,421420255676
636,844201892614
546,871541231871
1512,68582567573
776,059497997165
-2329,46890729107
-3418,00891505182
-1441,72360095382
46,5331571102142
232,728493258357
204,973487602547
-258,112907618284
110,361440867186
1679,47600743175
1114,05500333011
-1722,8139190115
-2445,44643734396
-344,285398423672
933,742066144943
456,250388622284
-359,55301393196
-1264,29183702171
-788,290362536907
1207,76357838511
1118,82052262127
-1256,92324887216
-1539,01507884264
1354,1762521863
3133,81103488803
1690,96694552898
-634,97775140591
-2088,86338882148
-1014,61475372314
1872,38620513678
2052,47050569952
-569,67149865441
-1257,65519426763
895,089455097914
1961,11588439345
647,534869894385
-958,685852428898
-1930,55610191822
-764,457455664873
2265,90739575028
2681,03244791925
-80,567978028208
-1152,70662432909
1005,11321461201
2539,55997568369
1706,85584467649
356,133615071885
-568,558031454682
152,804713368416
2064,39881044626
1485,2465352267
-1474,78360982705
-2450,49982231855
-257,216006815434
1459,02039858699
764,347693860531
-621,633822001517
-1279,41496621072
218,504116535187
2645,0040307045
1992,03024028242
-973,797164484393
-1728,23382489383
566,916827231646
2062,06581297517
908,811602026224
-883,152202912257
-1806,33105522394
-558,394463270903
1860,69249364734
1579,84820555151
-1132,62960474356
-2171,58245238662
-66,3734593689442
1882,52569907904
996,578820049763
-1024,39668719796
-2351,44472706318
-1316,99909687042
1783,93066883087
2462,09546257555
-89,0196490231901
-1259,49251565337
498,794604867697
1587,13093259931
403,295183420181
-1147,36782477703
-2276,04315686226
-1812,58541148901
990,325699567795
2316,25386731327
236,094348330051
-792,254926264286
726,82574608922
1212,09627401829
336,263327434659
-237,801242362708
-1043,30700835586
-1838,13729584217
-805,13288718462
274,510519579053
-1154,98721085582
-2049,75674156845
-1074,72493559122
-672,190989971161
-428,104607537389
364,867355966184
235,116719245911
-831,487522721291
-730,308155089617
-372,371037736535
-1782,27964341687
-2293,64413845539
-1082,80330738425
-682,560032039881
-545,248554557562
155,569911385886
47,9901207685471
-1057,60032826662
-490,403235405684
1314,96488377452
1435,35495822644
1419,6551194489
1499,90018802881
570,719208449125
684,698714613914
2018,18010772951
2119,97541226447
809,094060331583
716,432230263948
872,378277942538
-510,557267200202
-1164,99033665657
-1256,70522284508
-1475,45661765337
-209,746966779232
1797,35467120726
2029,07605302334
218,633020430803
-513,705221712589
-88,7966324985027
-1265,92635046318
-1879,30767694116
-754,411242634058
-255,13882663846
190,483421623707
1181,78290608153
1039,4046870172
63,1230595111847
117,616200566292
-256,058254629374
-2410,01686988538
-3073,6506716907
-1295,85580524802
-305,881258130074
-509,535024434328
-740,302712673787
-1390,74466639757
-1127,00858679414
1052,61052495241
1800,37572163343
-180,268239317462
-892,168900340796
852,076893866062
1562,09721013904
336,958813607693
-1139,25120139122
-2335,81647735834
-1744,07596570253
677,192118853331
1191,72789120674
-713,748629384674
-1159,64122474194
1261,106564641
2870,78687989712
1143,67326310277
-1641,27331063244
-3006,40331295133
-1163,1796477735
2514,92694717646
3164,23284929991
711,76044700481
-549,220718249679
1105,65612336993
2621,4939750731
1229,74890357256
-1294,89994960837
-2324,18970887363
-238,75884309411
3015,79190945625
2962,24785751104
183,063528567553
-1299,36344352365
813,486500173807
3950,53368166089
3530,01459279656
497,354237349704
-1102,5096590519
653,07954454422
3114,42747622728
2419,47046022117
-309,391946278512
-1736,97536100447
106,133253067732
3237,72072973847
3083,47692160308
37,8910045269877
-1120,61244089901
1427,15529718995
3773,34617742896
2794,81269474328
434,238691538572
-691,303765550256
891,839604467154
3550,49187594652
2990,56763967872
-151,014695692807
-167,584860414267
3658,16135963798
5428,10779327154
3362,36366809905
866,316066399217
-16,8680523261428
1730,69952122867
4660,45343628526
4152,66677381098
442,492007497698
-115,822879768908
3269,59213088453
4710,49381041527
3039,17070007324
1340,90139461309
867,412200532854
2166,45182028413
4184,96650247276
3136,94627006352
-819,597561556846
-1589,10827949643
1771,36962722242
3455,29492165148
2150,77246084809
641,3028190732
186,271492265165
1692,75119235367
4005,69481025636
3014,52559815347
-1380,83073986694
-3115,54471522942
-124,568765990436
2176,08071289212
1284,76955350488
-335,401809221134
-909,344373259693
535,401621520519
2675,06864862889
1752,03328165412
-2162,5571418833
-4251,89112532139
-1902,20254039764
1093,81978202611
757,93241982162
-1380,06613693805
-2180,85303582624
-262,733995348215
1889,48503742367
731,19254822284
-2345,14396540774
-3494,9403373003
-1137,42360333353
1459,99755953252
334,816006239504
-2828,97475600988
-3861,33942751214
-1586,8035916239
617,581258788705
-62,5005396567285
-2009,90320652723
-3212,59398904443
-1874,31090305746
1114,8027312085
851,716803655028
-2760,08155734837
-4374,72835112363
-2015,74989429861
444,724027127028
354,639482520521
-773,962741598487
-2037,74934750795
-2331,3827496022
-709,330682829022
-503,254452832043
-3522,17186354846
-5203,86708529294
-3286,3653921783
-1379,87725095451
-1016,96461323649
-968,692775391042
-1527,95952165127
-2262,78486894071
-1385,88762609661
-805,129137955606
-2906,78317355737
-3988,26610718668
-2250,82548221946
-1228,15697531402
-1245,3296674937
-836,725038442761
-949,423958912492
-1134,51039931178
57,1606434285641
-40,9283476024866
-2887,57659944892
-4225,65069109201
-3089,21800816059
-2475,06127634645
-2118,4704901129
-1257,0306446664
-1313,01481857896
-1809,26201653481
-792,139207690954
-278,551319077611
-1852,37021353841
-2025,97759516537
-665,302209407091
-736,902551025152
-1229,04379539192
-971,720375273377
-1380,38900440931
-2521,16384938359
-1621,61349305511
493,469902575016
518,834605540149
727,109744310379
1700,76105901599
859,060274511576
-69,9349720180035
348,25332520064
243,33763885498
-1142,32508030534
-1095,19168686867
221,594497472048
-702,772426882002
-1832,23004817963
-1428,20865935087
-1535,01562350988
-1261,82717162371
89,8406747342087
491,794755578041
-478,035910695791
-745,81439486146
-970,753561496735
-2951,57693698071
-3758,60897216201
-2378,72913315892
-1840,28500211239
-1946,26521092653
-1505,47009454668
-1580,38876920938
-1907,37622243166
-658,443078994751
403,067169904709
-783,404551530257
-1231,61684376001
-358,974102973938
-814,286169409752
-1671,18000286818
-1704,41205841303
-2104,17576080561
-2498,6647747457
-1098,26725250483
181,018744856119
-457,484056975693
-24,8616686165333
1238,88497817516
405,419976592064
-999,820290774107
-1291,71873563901
-1648,01248466969
-2298,32195344567
-879,352761566639
1629,9734198153
1695,10933426395
1410,88529655337
1928,95140376687
989,755463927984
6,8787624835968
299,738333322108
207,735680043697
-787,901537746191
-301,175682932138
1031,39138305187
-106,225643482059
-1293,83826670051
-580,770716577768
-268,455308049917
49,7841282188892
1054,33069388196
1068,71527577937
-182,744379281998
-441,002541154623
-178,71546331048
-1914,10425613821
-2854,23713192344
-1152,78270286322
-13,8155819773674
161,858656734228
636,404364749789
478,674181520939
37,5737148821354
1016,02787345648
1356,45934197307
-884,021551143378
-1923,76624250412
-348,313071846962
378,151406079531
-39,4744653701782
-205,96467538923
-764,319641679525
-869,34740909934
842,989075511694
1511,94575613737
-768,543622940779
-1903,52050887048
52,4603481590748
1331,87114021182
476,13569766283
-735,302003931254
-1865,00498116016
-1792,02252840996
511,804686486721
1700,81186780334
-205,116393521428
-1160,12611696124
397,91751357913
962,503928422928
-56,768796980381
-947,980584435165
-1924,42198218405
-2453,129275769
-962,964042633772
413,347881942987
-559,811688054353
-887,31002779305
143,828717559576
-156,329778492451
-873,026977002621
-637,38190247491
-765,368322402239
-1239,03911715746
-78,4609487652779
1125,43143230677
-360,317884434015
-1350,23967468739
2,38954427838326
557,463494449854
188,342542141676
351,35840440914
113,771588608623
-654,351279467344
-48,1585953831673
876,044524520636
-267,459774620831
-881,762329697609
67,3194328844547
42,1311226189137
-185,849252969027
446,313163310289
454,452108547091
32,8141280114651
1032,20352551341
1669,72518873215
-38,7196702100337
-797,068120285869
329,763011872768
452,594434320927
144,161202281713
569,019310466945
345,886179625988
-569,259560108185
439,021203607321
2368,63034015894
1791,87672057375
1254,85033412278
2243,96916723251
2039,20877435803
1483,13043376803
1898,01281395927
1704,88010838628
289,930971086025
347,272899031639
1696,94127732515
664,150973992422
-475,476303681731
461,939103186131
882,176938891411
1097,95322015882
2038,37366265804
2069,06756693125
806,991863161325
470,032531708479
626,380520403385
-1181,49950109981
-1998,43201065063
-67,0935090780258
985,737457513809
828,01701143384
1131,65292624012
1044,18433824182
420,561158716679
1140,50778600574
1959,17454889417
416,154410839081
-622,163630276918
92,0849880576134
-120,905963599682
-583,303183436394
-29,9835112020373
146,759212434292
20,1089590489864
1451,74898290634
2481,57316350937
810,269557535648
-12,2299383282661
1104,76470303535
948,029535353184
51,8433114588261
-107,073185630143
-622,222858190536
-1580,05780765414
-368,882587581873
2173,19566300511
2485,39539617673
2759,60389558971
3829,84549051523
2830,96237677336
1435,07798922062
1539,21537256241
1443,74762319028
143,625617563725
169,638538688421
1596,57098129392
1107,23043976352
686,548983603716
1561,01989424229
1173,07604685426
898,988075792789
2077,86139841005
2632,9190145731
1461,72769320011
650,644749909639
391,081418484449
-1647,68978951126
-2729,18738919497
-982,63140720129
32,9690170288086
46,7264401614666
762,613854408264
1120,8540712297
701,58438333869
1285,90659695864
1689,77707800269
-644,801299631596
-2471,67868155241
-1736,50865787268
-1382,79662334919
-1462,58188790083
-825,853407718241
-765,116036832333
-1084,13072752953
217,059047520161
1291,35845527053
-149,367637619376
-628,25498649478
803,185803771019
675,195143282413
-468,662083774805
-861,558223336935
-1454,38500763476
-2033,85388916731
-694,881330728531
762,919735461473
-541,998338364065
-1313,63324512541
644,000610589981
1569,42285621166
471,518378078938
-573,255470924079
-1542,10482335091
-2049,76175293326
-444,711059868336
1108,53846544027
-268,169224835932
-1131,41440244019
452,999758481979
886,47268345952
-144,260666668415
-610,933101929724
-1063,63009394705
-1640,143450737
-623,610383242369
466,760697305202
-1200,06222864985
-2470,00072008371
-1204,95938846469
-617,271753489971
-1089,49161061645
-997,5060287714
-1084,93178544939
-1923,6611700654
-1187,47386747599
995,969218432903
924,596861302853
183,80936588347
652,274564266205
184,439708262682
-345,684664517641
347,943135768175
584,366081535816
-24,8263472914696
597,874249488115
1292,6804869473
-389,044221371412
-1303,18770112097
-132,976137727499
76,7358495295048
-138,607626259327
492,618752226233
446,810103535652
-450,350789606571
-128,17750287056
332,740618914366
-1245,85160256922
-1833,73464114964
-371,056809067726
-3,84996324777603
-317,821916818619
80,8969682082534
-37,7088075876236
-1170,80923488736
-641,309840261936
1481,45949432254
1522,46409125626
1310,27324298024
2284,12105676532
1772,8888040483
980,690175950527
1569,47037841752
1792,87292404473
491,925434648991
-57,1681773662567
547,62571066618
-824,16670865193
-2016,96617127955
-571,622166514397
413,268462389708
462,967634946108
1129,12641165406
1382,00700208545
654,590547114611
901,12548404932
1408,07967591286
-574,091630294919
-2255,16019965708
-1526,12953805923
-1148,55920898914
-1253,25100722909
-665,677390515804
-522,974243342876
-865,028022438288
307,069665372372
1591,13502958417
224,728798337281
-824,347025737166
190,25510764122
295,917489767075
-406,473274022341
-451,010178089142
-853,488542154431
-1813,87210917473
-784,787391036749
1596,11910772324
1778,59498458356
1885,16616867483
3099,86344617605
2355,92292141914
850,091124683619
681,538188643754
532,172480925918
-532,620763301849
-235,202475756407
1340,65581360459
451,828992657363
-784,817378818989
192,730143666267
549,940795302391
311,13049826026
983,851207815111
1232,12724795938
123,460577636957
-8,47672188282013
1096,19420132041
-15,3211370557547
-1289,80720429122
-32,2727460563183
807,617762237787
660,417300224304
1071,68365140259
1120,03122255206
76,4073693454266
15,0092228055
753,681459665298
-576,483565397561
-1668,98019382358
-756,909596145153
-583,683218121529
-799,818760126829
-44,4533611685038
315,526171818376
-104,673790991306
694,524823963642
1684,11752271652
162,0516262725
-990,543638557196
-42,0956353843212
48,1774896383286
-553,112986952066
-391,694702170789
-549,41226246953
-1250,99896100163
-429,840050339699
940,996218442917
-203,015978530049
-1092,07171468437
599,206732451916
1400,83089345694
444,495306879282
-267,675824612379
-903,004759997129
-1429,70316150784
21,4472764134407
1729,4442409575
360,186110116541
-795,843911096454
546,956090271473
856,582571059465
-83,3142691850662
-289,105839051306
-519,767129316926
-1762,33611434698
-1324,61302140355
1780,47246071696
3076,98953709006
2826,47821220756
2958,93150225282
1716,04917293787
725,717809528112
1680,24110838026
2326,51315718889
1091,34382233024
466,78039470315
1017,62959831953
-199,916886739433
-1019,3005283922
-89,2854833602905
-114,211296916008
35,6669495999813
1593,96420821548
2351,24686999619
1234,58709087968
421,764275491238
-153,71169513464
-2547,38551848382
-3653,55787923932
-2077,55330508947
-1255,80840820074
-925,337917685509
260,742948070168
747,3287961483
-78,6757144331932
16,8429641723633
630,986299782991
-863,100921325386
-1628,84224322438
-281,783387333155
-256,960121572018
-1012,46953332424
-735,856818132102
-653,825408756733
-1372,01926866174
-414,112138807774
1877,21987593174
1868,24698980153
1629,68423993886
2532,40481695533
1631,11962783337
184,551782846451
212,168490067124
284,046524316072
-898,058265805244
-793,4846175313
1482,3693330586
1635,34845168889
583,446823894978
960,105415225029
591,457596302032
-0,608200639486313
686,695607565343
976,109197944403
39,8604102134705
-158,245840251446
-163,020977646112
-2469,94890136272
-4041,87792402506
-2719,18994572759
-1663,79173332453
-1365,24078115821
-641,436310581863
-566,168301194906
-1441,73285487294
-952,878553330898
444,998460292816
-309,303550280631
-884,670221090317
330,39106965065
259,089826703072
-686,573876976967
-776,668041788042
-1079,51176162064
-2063,96555361152
-1316,27354747057
843,16481089592
830,754295140505
771,916580870748
2238,84026128054
1834,50095337629
359,009961754084
148,540299601853
109,059956803918
-831,612693548203
-458,319585859776
1378,98724877834
754,086138106883
-546,818363517523
165,096546918154
259,687253773212
-156,737729609013
514,098601207137
908,159686937928
-302,130040317774
-854,377148330212
138,4696854949
-838,601828940213
-2091,18907819688
-659,963329046965
289,89124751091
-61,9411593079567
282,29199936986
688,184588134289
34,2162366807461
133,987292766571
1134,03910595179
-178,700038395822
-1763,59444306791
-1039,44786846638
-718,869809865952
-1019,95950776339
-408,647927038372
27,2919184416533
-331,582119077444
461,13190305233
1623,08662864566
-27,451022721827
-1692,4531698674
-770,1897354424
-280,855212390423
-692,827653825283
-477,977849319577
-542,167808294296
-2346,59045827389
-6014,21503025293
-10351,6247385144
-13831,0846281499
-15514,6840815842
-15347,1726370156
-13926,9280750751
-12107,3124958575
-10594,7345498204
-9636,60974922776
-9020,51725152135
-8417,21262714267
-7693,82973366976
-7021,39650776982
-6763,6039686054
-7209,77729657292
-8347,56100204587
-9818,6232381165
-11077,8174738586
-11589,5267357975
-9184,66157567501
1314,56930020452
19371,1838237643
35391,2454116642
44442,5412986279
47582,7921482027
43027,9495372176
32602,4424472451
24406,5348777995
20569,6144335419
16657,6726480722
14407,2392350435
18281,1852570474
23537,9505530521
26395,7793474048
30906,894782871
35588,5000212193
36178,5064683259
36794,0026581958
42961,1516281217
53121,7536346316
57658,7007036805
47652,6063513756
28132,621435836
14065,3728297055
10350,4032068253
10857,6632523537
14469,8318845034
21097,1227641851
23841,0630984008
16174,1800269485
-1473,05798637867
-23067,5634323955
-41034,0730308294
-49301,8490245044
-46491,8518438339
-36278,109287858
-24325,3126296401
-15388,1030614078
-11677,6784350872
-11838,9183921218
-10813,4236086607
-7012,67762744427
-4359,08122673631
-2287,67848795652
-282,738599181175
-2510,03593885899
-8160,21726578474
-13190,161323756
-16388,3073631823
-17699,2137722969
-14698,8043316603
-7069,50258630514
-821,527034878731
2011,73668801785
2634,97673201561
-1013,56787526608
-7321,39265018702
-12090,0508015752
-14398,6853888631
-14698,7577514052
-11470,3582915068
-5629,3861874342
-2329,46527439356
-1383,18796339631
-658,055931210518
-2547,29253268242
-6658,6812530756
-9751,12607973814
-11166,0515230298
-11085,4893168211
-8200,89185994864
-4313,48970121145
-3554,79220804572
-4829,65669126809
-4692,31130641699
-2474,99343341589
445,843459963799
2213,13540974259
2305,20479463041
4514,84482246637
14052,9878444672
27864,3933498263
37456,0218453258
41843,6586084664
46519,3362037539
48932,4184438586
41395,7764114439
29132,1637008488
27652,3406067938
39556,706961602
48207,6991339028
41583,6721464396
26885,7764002979
20134,1776471585
29205,467032671
44178,0334554017
47442,4117937386
35688,4504761696
23516,3159700185
24066,6434474885
32223,9456737041
31759,0733644664
19417,5551541969
9350,89678403735
14268,3978213072
28921,3100805283
35563,9296534956
28406,7913435958
18947,6114303172
19739,3473052979
28791,3476632833
30014,1918305755
18048,0194742903
7419,45880943537
9604,72291910648
15896,7064285278
14951,1843639612
10624,7553028986
7669,79426160455
8384,80449539423
15196,9689641595
19594,0494493246
14031,8578205854
7927,38045042753
9015,18784326315
10002,1385985613
8185,21470141411
8764,25393781066
9388,47590398788
8067,90959656239
9787,51291012764
12506,9517744184
10756,1345265806
9387,06753736734
14915,6041300297
21479,5576195717
21760,3729212284
20018,9015482664
19003,2413907051
19773,2644780874
23849,8136001825
23006,2298992872
13611,2614987493
5927,37685394287
5610,17897212505
6551,52749121189
7056,12221765518
10570,5058211982
11948,5879513025
2450,53827404976
-13644,692278266
-21695,3299859762
-18959,9079960585
-14127,3975912929
-14532,8242152929
-19947,9028646946
-19772,4406952858
-9879,99487751722
-519,420171916485
-2586,2610886097
-14251,0541484356
-21695,7941471338
-19115,8604466915
-14958,2631161213
-18376,9080708027
-27368,5186469555
-29623,1238555908
-21241,6270114779
-11952,3827037811
-11418,3046343327
-16840,6692295074
-16805,3843071461
-10724,1701050997
-10598,6461164355
-22104,7408394814
-34258,8619096279
-34779,363673687
-26321,8831650615
-19771,1492519379
-22186,7630465031
-33210,1346600056
-47357,5853836536
-58342,3286548853
-62622,8596166968
-60636,0246912241
-55667,2002587318
-51396,8417651653
-49670,9414809942
-49819,2462368011
-49560,1120988131
-46771,8626515865
-41054,8530572653
-34173,4124543667
-29132,4951124191
-28550,9437623024
-33299,3395559788
-41847,5615363121
-50739,4772257209
-56106,2768459618
-55339,8946102858
-48227,4709866047
-37078,706525445
-25868,5162574649
-18749,9219110757
-18224,3689039946
-24017,7879561186
-33353,4625601768
-42251,3807870746
-47218,3135250993
-46503,3682354689
-40627,6024264097
-32047,4833762646
-23995,2056498528
-19116,6474608183
-18488,7504311502
-21512,6017793417
-26459,3741844893
-31138,5010240078
-33741,1010102928
-33549,6653430313
-31079,3004208803
-27906,8051919341
-25583,4373562038
-24047,5347986817
-22588,1696182229
-21591,1944075972
-21556,4691981375
-22132,7108636498
-22657,1524006724
-22747,6626504064
-22481,3914344702
-22059,8914638832
-21532,5288795531
-20793,6772849262
-19652,9221907258
-18030,3984727487
-16107,9245002675
-14296,7234864235
-13165,4996172935
-13248,1903539151
-14692,7511308491
-16888,2096374482
-15785,0027067158
-8781,03515985608
-3314,98045736551
-4605,4173451215
-6648,23894990981
-3818,02334175818
4674,8532057032
13273,6104876697
13041,0590726286
4613,17397135496
-4061,44529367238
-7959,33282625675
-5039,19243969023
5437,48700833321
19683,6300475746
31016,3131665438
35957,0468001962
33179,2005000263
24372,259821102
16005,0157977939
12148,3382232189
11427,6828996353
11184,012691088
7303,02565218508
-2274,08715946972
-11585,8164786249
-11832,6754146107
-2872,94133936614
5156,11065550148
6711,13426361978
5822,35161145404
6904,13972983509
9233,40309406072
7942,20317068696
2180,43872706592
-4004,71304275841
-6599,00286144391
-4068,15369658917
-783,968779802322
-1246,89037111402
-3117,8611491546
-2654,23575788131
1614,63060173392
7492,54901842773
9178,81840237975
5447,36650740355
1237,61757665873
1194,60516826436
3439,5990704
2432,43913306296
-1169,49840943515
-4187,18077776581
-6068,4940798413
-5974,2823741734
-4046,90603616089
-2392,95375701785
-2822,29896328598
-5674,93691966683
-9949,63567767665
-13944,7466015518
-16185,0272613466
-16112,2431693822
-14097,251147598
-11077,7868339382
-8139,41622077301
-6119,3155760318
-5346,19377024472
-5617,05366168916
-6423,28205456585
-7281,76262093894
-7906,28231285512
-8194,16405537724
-8191,87371306121
-8017,26204390079
-7701,05325277336
-7174,84794231504
-6392,2407772094
-5408,34223787487
-4361,80812950432
-3479,00132356957
-3059,41268803924
-3219,04029519856
-3880,32906258106
-4853,57200205326
-5751,47067796066
-6150,79519387335
-5792,27144010365
-4685,57649028301
-3090,64277903736
-1495,46362124756
-579,242024324834
-675,968053385615
-1523,36642831564
-2720,9361731559
-3869,22095388919
-4560,81013635453
-4497,90662533045
-3591,31011880934
-2253,76576092094
-1331,41538723558
-898,389481853083
-594,036655541509
-760,227484643459
-1359,93343176693
-1942,14219272509
-2317,2985430127
-2272,6066423133
-1615,03066245839
-464,256850648671
601,204947698861
1085,81097054295
1188,71916738141
1288,03254901245
1273,14287574962
959,827880539
557,329592024907
425,88859966211
740,832865716424
1361,4446635698
1683,11912742071
1131,07982631959
271,564775321633
305,614500349388
1233,74794907495
1937,20270908508
1816,82057222165
1295,34138714895
1084,20917219296
1380,81525116786
2975,93739435636
7214,3070482444
11204,0727205724
10912,4279680774
8395,84344540909
7063,89950316772
7032,11462177953
7139,16128420085
7083,43570714444
11378,7816827409
23406,0411029942
34588,5289939879
34124,2127045635
24662,2397299968
18127,84250696
19572,9608003423
23841,1810939573
24304,3288289532
23755,2184111476
34565,2300875387
57387,753266871
78237,1246307418
85382,1995813102
75957,1154627278
62714,6201035678
61381,9736190289
67867,7501014769
66025,7900988758
46325,9518751502
11618,2385606766
-26481,6587681631
-53678,5193642378
-60854,7321611643
-49260,4117191434
-26599,6302644014
-2321,53637331724
15027,4531745613
21043,9073793292
16513,5083369613
5824,20363122225
-3912,60742565989
-5529,37212234735
-1774,54728162289
-1643,37492418289
-4698,07333672047
-5479,55457431078
-3348,5844411701
-414,730123758316
1602,33541893959
2203,13010370731
4253,7320073247
10518,0392064825
14054,7623320818
7786,04464745522
-2420,77684092522
-8574,55817914009
-9429,23234244343
-6909,15027463436
-3220,152536273
-108,048590540886
2813,87213659286
7711,82889106125
11703,1909461617
8448,0620714426
-639,977916240692
-8213,7720836997
-10616,1373120248
-8786,54029583931
-2681,08116859198
17023,7075922489
54253,2447397113
90635,230957225
111253,386774272
115755,680200875
102459,111942291
79069,5177320242
63911,8611156195
59398,2044644654
52484,471635282
43523,9251970053
44961,993380487
53105,6580368727
57967,64401263
57503,8577360511
50996,6681499481
48902,6921886206
61845,8216778487
77869,3121398687
75932,6662617922
56678,905043602
40764,8160645962
34758,9576839507
33211,7143404484
34664,5282412767
35397,6839638948
40325,2241950035
58343,4413104653
77799,4179287553
79768,2309161425
68979,820016861
59372,4084703922
48354,8553230166
37753,8090742826
35726,5313770771
37114,2192094326
41229,9509396553
55064,2079957128
68921,2325751781
70688,0047576427
68115,2735469341
65135,6224217415
54538,8303437233
43893,2311288118
41707,2133655548
40292,8775212765
40462,906869173
49092,010093689
55740,8231452107
53877,8419694901
53928,4073331356
54143,8090336323
46628,3666681051
43063,9420385957
55510,4912798405
69450,742975235
68691,8266947269
61293,428373456
