0
0
0
0
0
0
0
0
0
0
0
0
0
0
0
0
0
0
0
0
0
0
0
0
0
0
0
0
0
0
0
0
0
0
0
0
0
0
0
0
0
0
0
0
0
0
0
0
0
0
0
0
0
0
0
0
0
0
0
0
0
0
0
0
0
0
0
0
0
0
0
0
0
0
0
0
0
0
0
0
0
0
0
0
0
0
0
0
0
0
0
0
0
0
0
0
0
0
0
0
0
0
0
0
0
0
0
0
0
0
0
0
0
0
0
0
0
0
0
0
0
0
0
0
0
0
0
0
0
0
0
0
0
0
0
0
0
0
0
0
0
0
0
0
0
0
0
0
0
0
0
0
0
0
0
0
0
0
0
0
0
0
0
0
0
0
0
0
0
0
0
0
0
0
0
0
0
0
0
0
0
0
0
0
0
0
0
0
0
0
0
0
0
0
0
0
0
0
0
0
0
0
0
0
0
0
0
0
0
0
0
0
0
0
0
0
0
0
0
0
0
0
0
0
0
0
0
0
0
0
0
0
0
0
0
0
0
0
0
0
0
0
0
0
0
0
0
0
0
0
0
0
0
0
0
0
0
0
0
0
0
0
0
0
0
0
0
0
0
0
0
0
0
0
0
0
0
0
0
0
0
0
0
0
0
0
0
0
0
0
0
0
0
0
0
0
0
0
0
0
0
0
0
0
0
0
0
0
0
0
0
0
0
0
0
0
0
0
0
0
0
0
0
0
0
0
0
0
0
0
0
0
0
0
0
0
0
0
0
0
0
0
0
0
0
0
0
0
0
0
0
0
0
0
0
0
0
0
0
0
0
0
0
0
0
0
0
0
0
0
0
0
0
0
0
0
0
0
0
0
0
0
0
0
0
0
0
0
0
0
0
0
0
0
0
0
0
0
0
0
0
0
0
0
0
0
0
0
0
0
0
0
0
0
0
0
0
0
0
0
0
0
0
0
0
0
0
0
0
0
0
0
0
0
0
0
0
0
0
0
0
0
0
0
0
0
0
0
0
0
0
0
0
0
0
0
0
0
0
0
0
0
0
0
0
0
0
0
0
0
0
0
0
0
0
0
0
0
0
0
0
0
0
0
0
0
0
0
0
0
0
0
0
0
0
0
0
0
0
0
0
0
0
0
0
0
0
0
0
0
0
0
0
0
0
0
0
0
0
0
0
0
0
0
0
0
0
0
0
0
0
0
0
0
0
0
0
0
0
0
0
0
0
0
0
0
0
0
0
0
0
0
0
0
0
0
0
0
0
0
0
0
0
0
0
0
0
0
0
0
0
0
0
0
0
0
0
0
0
0
0
0
0
0
0
0
0
0
0
0
0
0
0
0
0
0
0
0
0
0
0
0
0
0
0
0
0
0
0
0
0
0
0
0
0
0
0
0
0
0
0
0
0
0
0
0
0
0
0
0
0
0
0
0
0
0
0
0
0
0
0
0
0
0
0
0
0
0
0
0
0
0
0
0
0
0
0
0
0
0
0
0
0
0
0
0
0
0
0
0
0
0
0
0
0
0
0
0
0
0
0
0
0
0
0
0
0
0
0
0
0
0
0
0
0
0
0
0
0
0
0
0
0
0
0
0
0
0
0
0
0
0
0
0
0
0
0
0
0
0
0
0
0
0
0
0
0
0
0
0
0
0
0
0
0
0
0
0
0
0
0
0
0
0
0
0
0
0
0
0
0
0
0
0
0
0
0
0
0
0
0
0
0
0
0
0
0
0
0
0
0
0
0
0
0
0
0
0
0
0
0
0
0
0
0
0
0
0
0
0
0
0
0
0
0
0
0
0
0
0
0
0
0
0
0
0
0
0
0
0
0
0
0
0
0
0
0
0
0
0
0
0
0
0
0
0
0
0
0
0
0
0
0
0
0
0
0
0
0
0
0
0
0
0
0
0
0
0
0
0
0
0
0
0
0
0
0
0
0
0
0
0
0
0
0
0
0
0
0
0
0
0
0
0
0
0
0
0
0
0
0
0
0
0
0
0
0
0
0
0
0
0
0
0
0
0
0
0
0
0
0
0
0
0
0
0
0
0
0
0
0
0
0
0
0
0
0
0
0
0
0
0
0
0
0
0
0
0
0
0
0
0
0
0
0
0
0
0
0
0
0
0
0
0
0
0
0
0
0
0
0
0
0
0
0
0
0
0
0
0
0
0
0
0
0
0
0
0
0
0
0
0
0
0
0
0
0
0
0
0
0
0
0
0
0
0
0
0
0
0
0
0
0
0
0
0
0
0
0
0
0
0
0
0
0
0
0
0
0
0
0
0
0
0
0
0
0
0
0
0
0
0
0
0
0
0
0
0
0
0
0
0
0
0
0
0
0
0
0
0
0
0
0
0
0
0
0
0
0
0
0
0
0
0
0
0
0
0
0
0
0
0
0
0
0
0
0
0
0
0
0
0
0
0
0
0
0
0
0
0
0
0
0
0
0
0
0
0
0
0
0
0
0
0
0
0
0
0
0
0
0
0
0
0
0
0
0
0
0
0
0
0
0
0
0
0
0
0
0
0
0
0
0
0
0
0
0
0
0
0
0
0
0
0
0
0
0
0
0
0
0
0
0
0
0
0
0
0
0
0
0
0
0
0
0
0
0
0
0
0
0
0
0
0
0
0
0
0
0
0
0
0
0
0
0
0
0
0
0
0
0
0
0
0
0
0
0
0
0
0
0
0
0
0
0
0
0
0
0
0
0
0
0
0
0
0
0
0
0
0
0
0
0
0
0
0
0
0
0
0
0
0
0
0
0
0
0
0
0
0
0
0
0
0
0
0
0
0
0
0
0
0
0
0
0
0
0
0
0
0
0
0
0
0
0
0
0
0
0
0
0
0
0
0
0
0
0
0
0
0
0
0
0
0
0
0
0
0
0
0
0
0
0
0
0
0
0
0
0
0
0
0
0
0
0
0
0
0
0
0
0
0
0
0
0
0
0
0
0
0
0
0
0
0
0
0
0
0
0
0
0
0
0
0
0
0
0
0
0
0
0
0
0
0
0
0
0
0
0
0
0
0
0
0
0
0
0
0
0
0
0
0
0
0
0
0
0
0
0
0
0
0
0
0
0
0
0
0
0
0
0
0
0
0
0
0
0
0
0
0
0
0
0
0
0
0
0
0
0
0
0
0
0
0
0
0
0
0
0
0
0
0
0
0
0
0
0
0
0
0
0
0
0
0
0
0
0
0
0
0
0
0
0
0
0
0
0
0
0
0
0
0
0
0
0
0
0
0
0
0
0
0
0
0
0
0
0
0
0
0
0
0
0
0
0
0
0
0
0
0
0
0
0
0
0
0
0
0
0
0
0
0
0
0
0
0
0
0
0
0
0
0
0
0
0
0
0
0
0
0
0
0
0
0
0
0
0
0
0
0
-710595,256678104
-710647,622276783
-698167,210288763
-692517,805245876
-707663,137113094
-728757,329566002
-732686,780237198
-723531,367984056
-722011,457062483
-733975,769049168
-746055,440438747
-742401,717508793
-723635,88591814
-708759,749971151
-713372,922757626
-729611,119462013
-737924,149621964
-735970,255825758
-740150,559061289
-761046,31419611
-787568,198770046
-799120,28144598
-788020,576031446
-765907,45409584
-751558,721386909
-748756,541953087
-745168,378865719
-734949,449531317
-727193,353032589
-734098,161521912
-753536,946192265
-769898,503369808
-777518,789484024
-787998,48216629
-809824,375266552
-831979,455989838
-835398,711183548
-819592,806573629
-806659,229685068
-813704,428366184
-829685,598282814
-832402,092654705
-820218,788263083
-810071,153757334
-815714,941919327
-830690,055473328
-833758,81201601
-819413,362608194
-803373,766936541
-797403,369791508
-795865,907415867
-785691,874443054
-766196,691483259
-751840,528239965
-754472,623682976
-767067,542100906
-770988,972179413
-761219,68965888
-753187,019613504
-761506,889131069
-776199,90640974
-775837,524031162
-759822,066123247
-748660,777083635
-759231,052909374
-780009,906080246
-784406,3337183
-771451,550507545
-762767,317489386
-770994,072408199
-785623,138755798
-785662,668266773
-769440,301259518
-755810,261686087
-756872,880950451
-763256,788804054
-755880,261523247
-733156,556013346
-715092,696634293
-715575,910093784
-725337,639223099
-727621,116638184
-721368,274011374
-719661,420497417
-731482,81592083
-749549,049321175
-758769,000813961
-758558,011756659
-764864,800390482
-788638,991630554
-817264,215430737
-826737,818441391
-814428,534754753
-803823,537467003
-815465,642783642
-840916,61279583
-856020,687752724
-853921,495461464
-849877,210292339
-859601,934802055
-876468,107087612
-880366,397113323
-869321,736231327
-861926,983823061
-870593,133899689
-883920,72822094
-880067,133828163
-856247,893126488
-833533,262649536
-831420,004518032
-842874,262813091
-844448,846065521
-828783,524072647
-812166,779277325
-812819,020632744
-824402,489510536
-823987,435641289
-807369,711327076
-792574,735372543
-794864,713512897
-808551,830673695
-812784,763101101
-799773,125808001
-787313,382137775
-794618,627161026
-813109,85567379
-819898,801020145
-812561,946721554
-809605,105083466
-824656,801670551
-849064,32378006
-864374,378757954
-866713,891221523
-868620,99832201
-881730,210329056
-899028,685232162
-905241,102347851
-902981,590859175
-908129,012248516
-929127,603532314
-954987,467125893
-966573,849397659
-962940,542228699
-961968,468197346
-977711,358232498
-1000116,30526638
-1006752,66882992
-995609,414923906
-987641,407190561
-999911,824183464
-1024288,24057388
-1039671,20590544
-1039373,88355184
-1034472,14296055
-1038831,89493418
-1049583,66257095
-1050673,85366678
-1041223,31391358
-1036056,85818839
-1041979,05711889
-1047652,38760662
-1036745,02259016
-1010683,11005163
-990121,096719027
-992294,354141235
-1008189,6075201
-1010424,23969746
-990146,522530317
-968536,686776161
-964931,665019989
-969953,760963917
-962525,829303741
-942972,514548302
-934211,286442757
-953681,529231548
-990945,684136391
-1017250,55188704
-1019744,68911934
-1015648,60971296
-1023722,22382593
-1038431,9154377
-1045357,46682549
-1043824,63258147
-1044343,49157739
-1055466,4497509
-1070574,5582819
-1072327,30489206
-1060421,75736737
-1056237,92399085
-1074219,50748825
-1101527,4352684
-1113236,8759923
-1105047,42327619
-1094091,36604095
-1094236,00452185
-1101262,29378223
-1096922,93618441
-1076005,86214042
-1057394,25124931
-1059238,16621017
-1077561,51544714
-1092511,00755739
-1094654,61323237
-1097049,93633842
-1116162,48003817
-1146885,67144585
-1169271,38423395
-1177151,63207889
-1183047,41772771
-1197475,63928843
-1212017,6247983
-1210198,3855238
-1191781,10974097
-1174106,18386388
-1173420,09103823
-1183596,57938099
-1183166,05089092
-1170857,49780083
-1166632,20571828
-1181586,73293447
-1202896,46760798
-1208643,50219488
-1198538,40233707
-1193908,48172736
-1208240,03286171
-1229410,34003735
-1235949,6650486
-1225864,05558991
-1214495,53219891
-1214130,49826717
-1219065,46871614
-1210805,21334648
-1187335,90960312
-1168795,88166118
-1168344,30821419
-1173618,13954353
-1165674,47748756
-1145740,88717937
-1132571,12381172
-1142303,67944765
-1168626,43312216
-1187163,12652445
-1187232,23510075
-1184760,84369493
-1197767,49393225
-1218007,96985054
-1223287,75313282
-1214845,52244806
-1216138,23360503
-1238518,85843706
-1266714,64386129
-1279955,96678066
-1277255,5835042
-1274445,51706338
-1285551,87433481
-1305128,90095806
-1313270,68120623
-1306016,62370706
-1302543,168769
-1316985,47220278
-1338112,16607094
-1344855,10886669
-1332126,93704319
-1314515,73715639
-1311335,401299
-1322143,93231106
-1323998,42758417
-1305618,95081329
-1282052,3582648
-1272442,16453218
-1275672,12104654
-1276132,48350239
-1273356,43848634
-1283738,76117206
-1313996,65666533
-1346636,1870985
-1359022,96759939
-1350975,91201806
-1341948,1042788
-1347610,41789341
-1362282,68462181
-1367187,60757256
-1358216,71903396
-1352536,32864594
-1363963,97566175
-1382703,99919605
-1391007,99355793
-1389432,64104486
-1392601,50470805
-1407815,96052599
-1423663,00913048
-1423850,28125143
-1409097,39013124
-1396335,93949437
-1400269,99380922
-1416101,94331169
-1425936,61269617
-1424540,83549142
-1427378,81405103
-1449477,47707176
-1481664,84779119
-1499680,66849709
-1497714,37522841
-1495368,0153141
-1510109,0387764
-1533507,56231785
-1543113,00646019
-1535726,0763104
-1531496,28984749
-1545789,57375526
-1567989,16166973
-1574846,92973471
-1562038,03359509
-1548885,74091792
-1553712,98348141
-1570511,90415573
-1578846,72206688
-1574164,1241014
-1570142,68347943
-1578629,1658287
-1593590,45133018
-1596585,63891649
-1582945,11265349
-1571054,49761963
-1579948,14358568
-1601597,72185516
-1610389,10561609
-1598779,46430159
-1582696,14916503
-1579445,92625189
-1586901,42607307
-1586597,10284328
-1571827,69582701
-1557004,33195519
-1558354,53952551
-1571540,46400833
-1576383,08664274
-1565854,10023332
-1555072,1773963
-1561978,82333994
-1583499,71894503
-1599786,91462564
-1602366,81137633
-1601175,41110182
-1606964,14914608
-1613672,87007618
-1604313,13099766
-1576667,32898378
-1549346,35418928
-1541703,6771369
-1550765,0903697
-1553755,70988464
-1541164,46062207
-1528925,45237565
-1531175,10539579
-1540320,66258144
-1539611,93989563
-1528516,46033311
-1524797,86761653
-1540455,42398262
-1564182,39588261
-1571350,87309074
-1553847,26844239
-1531748,4724288
-1528100,73043489
-1538678,74491119
-1539700,41837692
-1523262,1056354
-1506721,45547724
-1508145,86408138
-1521693,02259493
-1526226,40279627
-1517462,74563718
-1511924,07906866
-1522729,49985123
-1542672,89118385
-1553973,11125517
-1554046,60051584
-1558590,73472381
-1576489,52964497
-1593867,41257334
-1593650,7460146
-1581155,88093257
-1577449,79945588
-1594928,72006416
-1621689,43335438
-1634045,47744083
-1626906,45601702
-1617383,49924088
-1621276,8916235
-1633779,4211235
-1637492,15922642
-1629724,36679506
-1627012,61436629
-1642337,20903206
-1665571,73453522
-1673237,63844872
-1658132,54320145
-1637317,84220636
-1630459,60990095
-1636363,93602324
-1639140,69591856
-1636081,52385283
-1640871,8965826
-1660680,09580231
-1682631,30783272
-1687877,30689192
-1676686,33818102
-1668727,9731769
-1678747,12959957
-1695734,08177137
-1694014,78161526
-1667566,87434626
-1636134,95607519
-1618576,00602007
-1613316,17677689
-1607328,60010958
-1599127,22804475
-1599678,94832045
-1614319,214674
-1632726,61295319
-1638077,75675058
-1628289,44065189
-1621184,52732515
-1633647,4586463
-1656776,83778763
-1665656,57529449
-1655598,50287366
-1646569,91613799
-1655564,65244389
-1675768,68828535
-1686017,32158661
-1680180,17617869
-1672813,3711772
-1677194,20337629
-1687954,87745762
-1688754,95760345
-1674126,49397874
-1656417,71533847
-1650459,92994642
-1651515,12163019
-1640531,25327063
-1614454,71680045
-1592163,75700665
-1588713,11155987
-1596123,63425064
-1598302,89054203
-1593512,85987496
-1591645,68425548
-1602945,65906382
-1624155,58138895
-1638892,9594698
-1644398,11318946
-1655706,8680954
-1680495,43017292
-1706748,45189285
-1716168,71993828
-1708754,83248639
-1705707,71669233
-1724011,04350853
-1753215,20287609
-1766834,22698545
-1759195,12488878
-1749131,58730555
-1752274,24247313
-1765735,87746143
-1774509,60571814
-1771971,6746397
-1769482,13953876
-1780947,70706463
-1800281,21699476
-1807273,48004389
-1797913,559232
-1788999,48563933
-1793979,11020088
-1806004,21262074
-1809307,69397497
-1803364,19717574
-1801924,82675648
-1814901,1445117
-1833612,97236347
-1838201,79958391
-1825669,06439233
-1813621,0545826
-1815764,1869359
-1823316,37676525
-1817267,64258289
-1797660,84842706
-1783616,63352847
-1786864,67406511
-1796498,77396679
-1792776,29391384
-1774382,93230724
-1759697,40585423
-1762430,55149937
-1772359,77009392
-1766871,02610254
-1742034,26916885
-1719086,71243095
-1718989,82554007
-1738068,11939001
-1757566,46960783
-1771849,33920157
-1794769,74076509
-1837390,01801443
-1886730,25582504
-1918577,02756643
-1926339,89911819
-1926695,07677376
-1938149,48453665
-1956012,55885172
-1959936,58463764
-1945083,37711382
-1931140,46332908
-1938831,73200083
-1962283,69629574
-1978680,22729349
-1980973,87049532
-1983169,23493171
-1997700,96122026
-2016808,01380968
-2020072,381495
-1999363,80441403
-1971275,17169023
-1959184,39534092
-1962717,57423592
-1961628,20701361
-1949244,48614764
-1939661,36450231
-1947016,78732777
-1963865,84189701
-1968321,14474916
-1958809,45750666
-1954158,49245644
-1965125,56618404
-1980645,92324829
-1978955,9573226
-1960133,66495109
-1948881,20097327
-1960924,17546701
-1984324,24093294
-1996770,2945776
-1996218,47021866
-2001582,89832735
-2027563,22914934
-2062938,36415482
-2078684,70824814
-2064417,52459478
-2042920,7141434
-2040839,47873116
-2055610,68005276
-2065964,5222683
-2061991,76638079
-2052229,47911143
-2051378,74212074
-2059082,5222702
-2058584,05810356
-2045440,69131804
-2037176,03253895
-2046052,49078846
-2061042,85113907
-2062973,53879833
-2048027,99868965
-2033320,92119336
-2037960,54391861
-2057957,61577797
-2071652,11688423
-2071269,76747942
-2069393,62109327
-2077182,00708151
-2089760,5874362
-2092961,20419931
-2082929,37207699
-2072494,37622762
-2076319,71033955
-2090674,85585976
-2097660,0248847
-2092290,16200972
-2088288,61803162
-2099589,85643387
-2120895,45689631
-2130887,69995546
-2120386,79605794
-2104885,57031035
-2106919,30011797
-2126813,22412109
-2140265,70149994
-2133232,44712591
-2121258,98897302
-2125963,816257
-2143785,06376743
-2154658,80963516
-2154062,52385068
-2155294,48310685
-2169084,99641275
-2188032,69950294
-2194606,99248552
-2188909,62126255
-2189582,08398151
-2208741,70674801
-2238637,25397444
-2260588,63547182
-2268903,27021265
-2278086,73199368
-2302127,45582008
-2333057,11862564
-2348278,35007524
-2342101,13884592
-2332430,86523747
-2336291,64935541
-2348805,59664249
-2348592,65121365
-2327955,75085545
-2304084,47628522
-2296387,54335928
-2303478,65539074
-2309524,08553553
-2308876,57833576
-2311097,22153306
-2326830,37113857
-2351633,65565634
-2369150,60063696
-2375620,05872655
-2383667,37462974
-2403575,42516184
-2429573,61934471
-2443560,03305626
-2438869,97234011
-2431842,27434474
-2440848,36292362
-2461067,78431368
-2468627,3574295
-2452050,41103387
-2429630,56272841
-2428195,81891251
-2447840,13363266
-2465571,61536503
-2470430,93933964
-2470902,83476156
-2477740,30529881
-2488817,58982611
-2492654,71739435
-2487789,77102041
-2483054,11880231
-2482797,85193062
-2481135,20310974
-2467983,93950939
-2442351,71423006
-2416695,81840235
-2405823,15129757
-2409183,9311285
-2410293,6205945
-2400921,83153725
-2395149,60126233
-2409102,4808135
-2432589,17652607
-2440340,45656347
-2428786,47198868
-2421936,65774959
-2440201,24119091
-2475199,77020502
-2502123,1231184
-2511323,39186096
-2516010,40050006
-2530139,21418333
-2550635,87946796
-2562395,5325942
-2557088,87512541
-2546291,33853081
-2547807,50630093
-2560200,17103004
-2564940,81748199
-2553565,42468143
-2539612,12016153
-2541700,71955299
-2560902,21879959
-2579108,38230133
-2584706,79594469
-2588464,67358536
-2604572,45004892
-2627838,27260494
-2641363,01729202
-2641784,91362095
-2644265,55647874
-2665601,7386179
-2703566,72759914
-2735904,54572439
-2749607,80413151
-2755939,20957264
-2770239,55363607
-2790970,8965559
-2803965,3459897
-2802122,70559931
-2795795,74808431
-2802523,88334799
-2820941,76796818
-2832069,01847076
-2829509,66435623
-2826675,09504627
-2838168,57797194
-2859724,6303792
-2872937,72055578
-2872326,87390089
-2874440,51778793
-2894469,52508831
-2923027,61532593
-2939224,41475439
-2940468,71066141
-2944280,84029284
-2966564,0001564
-3002642,51752949
-3032092,03134012
-3045756,69313431
-3053812,81632829
-3069582,67815018
-3093018,37513351
-3111992,16071463
-3122630,19501686
-3134400,50195634
-3157736,23226643
-3188768,11571026
-3207296,88421869
-3202041,00089085
-3185770,99052858
-3178474,4620409
-3183232,11455917
-3187412,65287304
-3184641,21940994
-3183016,79043758
-3194268,33355665
-3218324,70227623
-3245706,15826988
-3274393,05335283
-3310776,68123889
-3359672,18973112
-3412948,27028179
-3450673,54904938
-3466676,67605114
-3476131,97095355
-3494650,05539036
-3520100,14300871
-3537300,2853055
-3541020,07002902
-3540986,8859694
-3550827,24384928
-3571356,06451797
-3585750,13734436
-3587470,52548885
-3590686,29629122
-3608616,51454926
-3637434,2819829
-3660071,45263577
-3667960,67644954
-3671421,25441933
-3685031,71857929
-3708223,08214283
-3727058,75964832
-3735182,16034412
-3743233,13108501
-3766884,70889473
-3803384,68067074
-3832723,75171328
-3847568,43854451
-3860709,926507
-3887826,44842148
-3927637,6608572
-3960227,58450985
-3975207,18283796
-3984013,04373211
-3999983,13991809
-4020517,15511417
-4031455,68741035
-4028272,23067236
-4024972,15854049
-4037940,52265739
-4064201,24972439
-4084256,49608612
-4087172,47948599
-4083514,34096593
-4091727,83121347
-4112028,97042513
-4129015,28894615
-4139669,74295306
-4159247,15583205
-4201196,27506065
-4253924,99012184
-4289419,40379238
-4300778,38671112
-4310317,28039593
-4339784,51294684
-4383482,62700033
-4416201,00308847
-4427832,67735624
-4432866,66111755
-4450695,4189558
-4484126,84488392
-4516872,14558887
-4540805,94722509
-4568609,1344409
-4612790,08520889
-4665197,52298689
-4704693,15056324
-4723561,19386137
-4735337,10822749
-4760658,5638361
-4802873,34412384
-4842829,61381054
-4870800,2186141
-4899252,9026292
-4942527,46801281
-4999610,49077225
-5054512,03137875
-5095654,38829362
-5128904,84250402
-5168570,00315523
-5217580,39487934
-5261164,240201
-5287615,76462793
-5307613,74145538
-5338696,66259789
-5374730,1338973
-5395225,0918231
-5399398,42056096
-5407136,40771937
-5434798,03190708
-5475296,83462524
-5506460,27574348
-5522256,9281292
-5540005,24941492
-5575573,33201933
-5622517,27871895
-5664260,82290077
-5697987,12086082
-5733586,7354939
-5777656,72197962
-5824611,40929413
-5860767,74666405
-5881697,56080961
-5901033,16710347
-5934062,49014306
-5978539,02834225
-6017436,21458626
-6042548,54402995
-6063999,35714293
-6094837,48239803
-6133280,94888783
-6162951,34329796
-6179778,95952654
-6200891,62765366
-6240427,33738637
-6292590,08148527
-6337478,26181555
-6365655,15682304
-6391046,89112401
-6431700,04467773
-6484286,13923073
-6528685,11275482
-6555141,15139723
-6574446,15899801
-6604341,34998131
-6644511,16280079
-6677724,22293901
-6700839,35220087
-6729634,49730349
-6775353,58735085
-6826753,36270046
-6861132,84972095
-6874653,04144812
-6887629,13174474
-6920146,67401385
-6966645,67684603
-7002908,34764338
-7020820,13400066
-7037530,32275486
-7071358,66689968
-7119033,02763939
-7159894,34235001
-7185678,79833841
-7213036,57497287
-7258473,0164609
-7313283,95042372
-7354591,41190767
-7375859,88122511
-7393982,93946433
-7429093,41680527
-7481423,26341057
-7529846,11759853
-7559912,92584944
-7582589,53091121
-7615709,98829293
-7657901,35390997
-7690461,90016556
-7705439,95741707
-7717157,61399531
-7741643,97535419
-7777384,97898674
-7808407,80775928
-7826506,80435419
-7843638,89301491
-7876700,03480625
-7923224,12060213
-7962945,31942129
-7986610,97091663
-8007475,30691528
-8043204,14412498
-8091729,31874657
-8133652,62071228
-8163128,27480936
-8195263,96213078
-8240281,25801873
-8289224,41807747
-8326530,90627885
-8350120,35499653
-8373830,49307728
-8409271,82190895
-8451165,27733612
-8483854,3278389
-8502914,24620819
-8522945,43173718
-8558345,69663596
-8604121,28108644
-8643335,66687894
-8670570,80300501
-8699641,27368116
-8744419,45054245
-8797379,25571632
-8838259,70717621
-8861223,5278163
-8883928,63100863
-8926471,50842261
-8980746,13874817
-9018153,39398479
-9030420,59248322
-9038470,01011848
-9063276,86874199
-9101742,7956953
-9131285,41328335
-9140020,18390989
-9142150,78578782
-9157525,41030073
-9186660,65410757
-9213982,51004553
-9233809,8069396
-9259187,47777939
-9301968,90957355
-9355212,12189865
-9401936,68997955
-9436855,4805913
-9472311,05021572
-9521791,96989107
-9579467,1038537
-9626247,92015672
-9659137,17377579
-9695998,25735712
-9751747,04456902
-9818476,19791031
-9871526,56499386
-9900754,85638046
-9922746,30312324
-9959674,96210003
-10012716,1252935
-10062394,9621274
-10098085,187049
-10127689,347805
-10161179,6221867
-10198803,0188427
-10231597,7802258
-10258583,3815556
-10294157,7283077
-10346849,3952787
-10406150,2273524
-10455244,4280894
-10488840,5229396
-10518138,9880457
-10557833,6565065
-10607383,7440872
-10651972,8605299
-10685116,147903
-10720356,2692428
-10772900,2852107
-10835857,4995637
-10885805,9266112
-10912317,7607437
-10932713,1461844
-10971831,5076437
-11029640,9324865
-11081238,787159
-11110817,2341256
-11128927,915725
-11154446,4512516
-11188245,0293441
-11215341,246542
-11234245,7563864
-11262116,4502792
-11312622,2400026
-11378021,080966
-11430220,7008553
-11454306,6796427
-11467719,8290346
-11494418,6438884
-11538432,3133216
-11583167,9722719
-11614376,4496093
-11638993,703517
-11674612,1533346
-11723665,1298265
-11769375,1413374
-11802578,4717569
-11835870,4828632
-11883797,5260845
-11940760,6790013
-11986337,6614158
-12008332,0209545
-11985583,3030176
-11852352,0296297
-11561154,3834705
-11183180,2499895
-10807872,6760731
-10389236,2065098
-9847536,05203259
-9197124,59562206
-8501798,74200726
-7802437,6339252
-7105745,13749361
-6418906,18126154
-5755742,97909737
-5112889,20715904
-4477793,28235245
-3844877,00768697
-3208427,98250127
-2553983,60893869
-1869013,34423351
-1164803,22965622
-475070,461028576
160874,395877838
724322,633118153
1248925,39953327
1784250,27854407
2333398,67348039
2869741,98143768
3384684,13698769
3896140,67770481
4420837,24399829
4954486,23367047
5481355,8659327
5989717,66568184
6486486,09853554
6988179,94725537
7484970,69298887
7946675,76051569
8366498,79245472
8767308,73398304
9171339,69485092
9578321,80856109
9954675,01226974
10284726,0419641
10623319,310024
11011568,2294638
11412040,3172917
11768751,7327738
12066338,3813238
12324297,7926502
12572170,3919811
12844852,273144
13162007,1480373
13515397,297842
13886194,7770522
14249892,4663475
14579581,9120998
14864392,8509789
15117188,9432802
15349661,945858
15571168,9817371
15804670,8575249
16052503,3740414
16294156,1513553
16524211,9630784
16747864,8493118
16964558,8870125
17175740,3331137
17396619,7058592
17645136,6914005
17915724,5452394
18177039,6958873
18387574,9358183
18531088,8325522
18648552,3931696
18787694,6061702
18948310,0592508
19106067,7862568
19253510,8989553
19398449,0468922
19511557,6389818
19556375,5414186
19574050,8994978
19625788,7080371
19716717,2202362
19817911,4706111
19900533,4486227
19957509,2130842
20012719,3725605
20089844,645854
20183107,6940374
20285704,0176587
20395964,9604453
20498501,4773249
20580798,4507508
20640753,2931638
20679764,6247931
20705735,5673513
20739762,2503557
20807188,2967062
20897210,903903
20969873,7687335
21013872,1038452
21044691,1375221
21074204,7746749
21103297,1510701
21122343,2143612
21125602,4730587
21125145,0439491
21134723,410656
21156342,0492916
21186952,4432144
21214267,8062871
21228038,847789
21234420,6238
21241242,9553771
21244301,0311098
21235430,4378271
21221791,1584539
21222482,2198544
21238900,2117414
21247676,4028771
21230103,3398649
21195012,4076557
21167169,3667052
21158127,6165671
21155470,3934221
21140271,0364532
21110371,9874735
21079890,0369835
21054253,9424219
21021481,4341621
20970515,2823113
20906954,3210149
20850749,028368
20816622,4402022
20795577,5534706
20763408,4204121
20708594,9576588
20640885,3298149
20549958,3727236
20385914,4456286
20153807,1760792
19943881,5987746
19809802,3241209
19723152,3622618
19631220,747592
19503740,2702589
19355333,9007387
19221458,3743725
19105067,1589165
18997439,1404696
18912685,1436951
18849993,7542277
18788456,8154054
18708202,1127129
18592886,7267113
18444180,0821381
18290160,2085066
18163154,0939856
18077776,5941086
18027901,7457635
17985572,7915454
17924136,597217
17840490,3667673
17741120,7709484
17628036,8170633
17505263,4983845
17389782,2636766
17295301,7465029
17213245,3817339
17130191,7920609
17036371,0798204
16925656,5299156
16808609,4169649
16699213,6211066
16595366,9470816
16489037,9437227
16379326,0368614
16257658,8777037
16114029,8314662
15963718,5727694
15818934,2891407
15673915,9167341
15532476,6838044
15403383,6837635
15284429,6104307
15170031,2700176
15063624,7182589
14971579,2200556
14892285,8883791
14806776,2244761
14688865,7749112
14543301,9363742
14401805,3178935
14281695,5047307
14173916,4389687
14062225,3799295
13946502,1423264
13837888,851182
13713491,2355208
13538277,4776173
13337861,7035402
13160972,8192667
13019325,9523451
12895047,0810871
12761236,1420155
12605840,9166307
12445088,3563995
12306353,7690306
12205279,7445569
12137417,8671142
12077761,0930667
12003401,851483
11914139,7649882
11817113,2752252
11708669,235055
11582757,1502886
11451389,8453207
11337664,3242407
11247144,0100698
11166257,609471
11078431,5101018
10979249,737654
10882281,0175173
10796100,7215748
10709902,3797965
10611189,9179363
10502823,840251
10400954,0567055
10313987,5635037
10229722,9001135
10131636,0037348
10013287,0732579
9881496,20136106
9758733,52356982
9657522,01088619
9559682,65957165
9448145,05271244
9329689,19606972
9214644,38738441
9094656,65890616
8937062,84094477
8740771,01066732
8571667,25752091
8470333,82741588
8400854,04047966
8308158,01789951
8173124,3471365
8014549,79966068
7832195,56202507
7618278,47994402
7418584,53535509
7280053,85277987
7194219,02641296
7121128,61846018
7020760,84822845
6880014,36611271
6724474,65626717
6597719,35361195
6525742,53657389
6498984,38581147
6482889,76773262
6448786,20027304
6391914,88711214
6317698,13272142
6227235,06958103
6122462,64444542
6019153,08271599
5938096,61855125
5879416,22570992
5826750,43097609
5763959,11289787
5683399,94439888
5594992,84320211
5512385,40134722
5435873,59030771
5359845,81838703
5283953,94273758
5201550,65125275
5101569,72761059
4993876,22300237
4888847,60232878
4781389,91096544
4676351,8467226
4584600,75621736
4504580,26806927
4431156,85535812
4371335,68959522
4332906,27905369
4303409,09503222
4256099,58806211
4169444,5953474
4051502,95432329
3937590,4518733
3846989,9683696
3769358,01092482
3690212,50052309
3613397,3147831
3557933,57648754
3508310,05426311
3414783,37429941
3281736,18085814
3165048,30652189
3087627,03307676
3025928,57759994
2948015,8049252
2842643,87636137
2730368,88167858
2651270,2789669
2628476,39757562
2646425,01006806
2669452,22262096
2675930,83099604
2669302,61079288
2655635,63464212
2627242,38017654
2574119,51862669
2504107,19930553
2429098,58561325
2342703,91746795
2250489,23383641
2172310,78488255
2109995,31025553
2059911,55159187
2019039,33376563
1976469,59759641
1925423,89636803
1875221,54747057
1847139,94730711
1848181,52525032
1856832,12987876
1845999,77220106
1803761,55663109
1740124,6643796
1683153,64674878
1647299,07227588
1617036,5887332
1577468,11559391
1535252,53102446
1498896,70884824
1462736,72196603
1406697,6689887
1320139,69705439
1240135,9962635
1209689,29380524
1212527,12162924
1200486,98294878
1151762,04515171
1075184,31598663
953421,351825237
768597,646507502
583527,207904339
469775,620455742
424116,93644762
400583,094318628
354966,67560792
273674,255445957
183685,68406868
117147,365224361
82160,2348406315
81646,8418784142
107427,252142429
130827,976650238
131858,493266106
106888,034083366
57147,7381682396
-7626,2937707901
-59230,0394887924
-63721,1358966827
-21191,6617774963
27018,4641225338
45461,8152623177
34764,3683481216
14737,7196583748
-1349,56362509727
-16735,827732563
-38836,426402092
-61237,3948221207
-82300,4780035019
-118310,148481131
-166777,776684523
-210466,787581921
-248736,937509537
-282405,699473381
-307269,065570593
-327034,546054125
-347080,841126919
-361502,213121891
-356322,696377277
-328778,297240734
-297360,449816227
-289833,570737362
-312461,713470936
-339207,122904301
-348949,506404758
-347311,081586361
-348347,897171021
-352873,907691956
-345545,328596592
-335139,496896625
-376126,547482252
-482392,012786388
-587083,609340191
-639194,797760963
-650892,395213723
-662022,570440054
-700604,26953125
-756713,871793747
-807879,24022007
-849925,677365065
-873099,150377274
-866071,110265255
-841734,052717686
-819166,776522636
-810310,91769278
-823284,916605711
-857268,279522896
-891538,789455414
-892816,128003597
-850784,746891797
-792279,572182178
-748773,018959522
-726213,467510223
-709542,414415836
-687150,919911385
-666574,82604599
-661118,725002766
-666889,235215187
-666662,088189125
-651155,39201206
-627908,226840496
-613347,218472481
-611318,125807285
-605402,65906477
-580935,143156052
-543971,794603825
-513416,740083218
-496737,302564621
-481738,587034702
-458925,539507866
-437694,248784065
-440471,774319649
-490142,536406517
-567103,43200016
-612246,491892338
-610325,089632273
-600658,354309559
-614558,755274296
-648593,984826088
-715069,552024126
-846493,945482731
-1001250,42263603
-1094457,34681511
-1106510,28432798
-1081003,78364992
-1073156,64387703
-1109602,09321451
-1169787,06752968
-1219917,61475897
-1248824,21755505
-1247516,11642838
-1210803,46703959
-1159954,99258423
-1120492,32976961
-1105845,73408365
-1120790,88890505
-1157103,56109142
-1187902,44585991
-1177043,86310434
-1111272,35706663
-1016130,27510524
-933587,921164036
-886218,946536064
-863042,876367092
-845214,557502031
-828518,138277054
-815240,538642406
-800853,328230858
-791093,41567421
-813024,112811327
-865365,813939571
-914751,342618465
-948977,685181618
-972071,957120419
-985661,377664328
-994029,40418005
-998645,84375
-988347,963964462
-950816,567244053
-905870,98149085
-886486,732278347
-892514,851993561
-906942,538871765
-917681,396222591
-920605,907952309
-922595,741920948
-928525,485764503
-928606,581585407
-902408,318771839
-853427,997918606
-833544,013546467
-871662,002631664
-923013,355995655
-943727,04262352
-937951,769456267
-934253,904141665
-954981,452140331
-990223,663800716
-1015116,57059622
-1027648,99707842
-1029459,20345402
-1011131,89241123
-977068,951080799
-939250,003987789
-908648,728618264
-898361,123869181
-911545,522458076
-928980,219619274
-918962,036476612
-871741,454517126
-809422,057799101
-757617,329354763
-723006,464850426
-692515,405103207
-654897,063045502
-618271,824144125
-595794,474048615
-583649,868459702
-562102,426071644
-522410,800320506
-479874,739239693
-452877,205552578
-448911,19063282
-461478,058617115
-465244,008683801
-444708,260800123
-419143,579343796
-409009,871439457
-408616,757872105
-406660,205625892
-404356,891140461
-418761,000261307
-463247,629835129
-503961,039759159
-493246,113714695
-442813,246623278
-403404,278412819
-402673,722625732
-429733,220421791
-492439,249283791
-621094,483646631
-772367,343172073
-860681,442014694
-867847,155427933
-838450,339214802
-826972,828051925
-860278,992908955
-916861,638607025
-956586,237026215
-963996,257073641
-935835,877729416
-876760,830517769
-813135,404871941
-767971,186855793
-749081,622242212
-758933,123198032
-789698,801523209
-814078,350218773
-796669,221964359
-732514,496132135
-654056,119314432
-591997,971747875
-556676,232344627
-540611,259996414
-530357,351805687
-522960,130786657
-519379,808733463
-509704,624835968
-490076,380687237
-477544,867560387
-477234,472908974
-480116,784193993
-487128,454112053
-494485,443395138
-494016,497504234
-488019,01133728
-480068,300204754
-463012,840041161
-429327,044493675
-393586,64913106
-381455,203785419
-397025,099811554
-422465,455389023
-439354,128921032
-441103,943586826
-434900,394881725
-430657,214418411
-423526,299415588
-394528,840254784
-347941,662113667
-336222,523627281
-386620,935403824
-449391,149289131
-476407,974577427
-472674,077111483
-470387,980727196
-493557,69355917
-531872,398121834
-562589,10488987
-581163,140448689
-579765,054032564
-548808,497701168
-503256,177238941
-462386,089844227
-434182,027309179
-425105,807137728
-437021,145205021
-453030,85924387
-444705,510481834
-411973,703671157
-383504,430909634
-369879,136258125
-359138,875987053
-341138,55543232
-316520,026221514
-297161,125697374
-293427,556173325
-296247,028613567
-279727,846776962
-230699,305140436
-167450,100747585
-117520,489207745
-87057,2812356949
-58674,3119330406
-16511,5148853064
33292,3906033039
72341,6216869354
94880,1460642815
114097,037405014
138765,388403893
137917,826844215
67345,1035284996
-41541,9615969658
-106257,406317234
-104719,25053823
-81055,4991197586
-80534,811984539
-110783,986590862
-143032,063071728
-170078,186149478
-224304,904463291
-296009,844923973
-332876,057134628
-321223,811051369
-292552,854286909
-286556,786283493
-321734,87007618
-377787,165541172
-420669,293703079
-440800,436870813
-435212,4104743
-398808,720137596
-349642,248221397
-311005,653992176
-292457,969203711
-298634,870584488
-325307,137245655
-347259,97313118
-331254,526014805
-275917,55659759
-211322,386828184
-161709,789326191
-134313,805027962
-120265,115895271
-106093,89646256
-90992,6824941635
-80582,9364466667
-69576,0341682434
-53182,7752504349
-46988,6358531713
-57437,299022913
-71587,3963131905
-85747,7816495895
-96723,3700847626
-95737,3416799307
-84508,7220797539
-70775,1231584549
-51241,6839075089
-20047,8559966087
6057,6780731678
11219,010515213
3465,50796461105
-9398,20853376389
-20314,1008501053
-20333,8018727303
-12459,8388283253
-4353,2307510376
8090,82399654388
40545,6184821129
83664,8894236088
79781,0637822151
4909,62000703812
-80362,7410216331
-123032,578926086
-129616,320605755
-133685,683852911
-161222,894917488
-204361,561542034
-239212,664337635
-259002,430085063
-257265,399880886
-226341,11445713
-181615,509603977
-142039,612529278
-116180,008428454
-112118,971065044
-131458,781358719
-155731,01809454
-151881,32491684
-110189,519618869
-56176,2928140163
-12596,549366951
18034,8367071152
44631,0595192909
73717,1626057625
98360,6844053268
109150,886105061
111571,771847725
125312,263443947
161767,206816316
208034,189157248
242391,816712379
260301,334413528
276740,38257885
304999,56839335
341676,611898899
371502,091690063
387452,032296658
400726,703392506
420164,013476372
436051,853038549
418469,091988564
347429,562612534
267738,354775906
243009,115676641
267070,16318059
287880,937488556
276377,188904762
245413,253424168
199662,683392525
104940,522930622
-27595,6647820473
-119802,407459259
-133869,007599354
-104094,429307461
-86546,3561359644
-116221,148485184
-179823,580666542
-240268,599904537
-280632,915782928
-289411,382820368
-257869,55216217
-206045,217089653
-161250,536679745
-139918,92341733
-150017,042832613
-184809,206212997
-217847,194951057
-211794,612872124
-159060,911252737
-96035,9045262337
-53484,1193561554
-31887,1903181076
-21271,7512435913
-15356,7070014477
-15793,6960031986
-24743,8898077011
-30276,8124628067
-16002,2664151192
4392,73952436447
6349,72310829163
-5462,77645015717
-18957,623301506
-28335,8327698708
-29510,148720026
-27695,4916269779
-29226,4540915489
-27373,5667476654
-6351,18158388138
35659,1776826382
77116,8368740082
96947,7204461098
96489,5829524994
93885,0967159271
102945,272756338
120255,323565483
135216,901224136
147650,44906044
171525,594501019
210448,152199984
219471,558799267
152781,933413506
51547,1869578362
-9688,76666593552
-18666,2490320206
-15023,9701361656
-35601,9255633354
-83887,2598285675
-136155,93358326
-159490,124162674
-136359,399538279
-84584,1114087105
-31607,4966182709
15732,5657954216
57940,8460066319
87695,7906579971
95385,77480793
84012,719192028
76624,2888145447
79568,6673798561
70601,4707858562
47642,1286673546
28979,4024267197
25356,7664980888
36122,3317165375
48516,6175563335
51246,302649498
51972,7907810211
72436,7857785225
122064,449037552
183496,964359045
229419,824536324
250516,118791103
261909,261862278
280821,456784248
307554,979768276
329045,623678207
340018,216460228
353683,086078644
378920,155472994
403764,694977403
399413,26539278
345444,165765762
278652,626407623
258347,942276955
281896,399690151
302615,90794754
293713,378437042
267267,945185661
238203,123457432
170736,697389245
38811,3718852997
-90073,0397496223
-142993,798235893
-133473,538309097
-123735,754593253
-160331,734500885
-237403,452177048
-315823,450414658
-368694,101005077
-377527,930404544
-333891,458766937
-262565,564390182
-196479,482246399
-155751,423692226
-153616,623381495
-188184,985459805
-230185,98110199
-239230,147315025
-210026,942286253
-170254,957931519
-136545,632365704
-113589,100619316
-101989,22928381
-96875,0973677635
-98706,8826849461
-108927,186832905
-114196,83032608
-102347,846350193
-88120,2537381649
-83828,3098335266
-83159,7095041275
-87714,533039093
-97948,1547241211
-104698,773634672
-105661,966885328
-104245,203493118
-95419,9274768829
-67322,4680876732
-23079,3421077728
15842,9664933681
31559,2581739426
24396,6045389175
13476,0326795578
17447,8477811813
34494,5099606514
52556,8018770218
71374,5761098862
104917,840026855
157226,527654886
194035,984003067
166256,912038803
86799,5173611641
25546,1203827858
15921,616587162
30736,9893167019
30861,1169571877
5930,92386722565
-40855,819272995
-114413,450113773
-189432,931789637
-224931,702423096
-221305,537479401
-201539,256945133
-184194,064461231
-184163,661346436
-203822,366763115
-227616,440674782
-227882,473584652
-187351,20998764
-120586,261051893
-59071,3853788376
-20720,2641043663
1072,7030377388
20902,2791132927
38408,9944474697
45137,8136725426
44998,9916419983
43748,7193021774
38365,2371087074
33930,537460804
34063,0679306984
30979,5642309189
27649,9283533096
34324,9993245602
49945,7954273224
65757,3956050873
81577,6746268272
111539,88202858
162841,62463665
219578,678093433
256482,448643684
260542,832529068
248465,230034351
252816,075055599
280158,863363504
308122,137009144
320877,089097023
326656,056189537
335820,650619268
309580,089144468
200511,149395943
60976,9493098259
-17198,0468273163
-24734,7095692158
-16386,2941402197
-41534,3551764488
-104312,532655716
-175476,37189579
-238132,119817495
-277292,647009969
-269910,879545212
-224874,798147202
-171424,488849163
-132729,629174232
-127950,233948946
-159120,39421463
-205030,487952709
-233931,652233601
-219177,918520927
-161053,766866684
-91211,2558093071
-40464,0137424469
-12152,0903978348
6300,56670999527
18605,340236187
21722,025800705
25415,184015274
36511,0527009964
32798,7708683014
2214,95551347733
-35083,2250614166
-67542,8037557602
-93788,5882444382
-109380,682337761
-116044,335139513
-118135,849978447
-112624,705395699
-95971,8712124825
-70447,5554244518
-37829,5852971077
-10240,1343193054
-3735,21829080582
-11633,6866588593
-15823,6270186901
-10911,3224816322
-1115,49715805054
16154,6175274849
53674,4943132401
107566,103847265
124121,734373331
59111,0855884552
-40968,4201440811
-105067,364839077
-122614,068673611
-126655,480758667
-148650,60392189
-188037,564815521
-226333,227184296
-259702,611128092
-278912,505286455
-266101,018306255
-230484,5868783
-191471,708681583
-159981,025452614
-148346,330937862
-162987,701076984
-189172,786583424
-192103,927193165
-153631,195293784
-96445,6313078403
-49299,2226715088
-17656,0729107857
8783,19660329819
39026,0220674276
66526,7030453682
78208,709148407
76766,6827740669
80656,6318740845
102306,08979845
135503,286186695
162168,098794937
173754,155488014
185586,083017826
215967,961412787
259667,628501177
295808,591002941
317074,051757813
338024,76608181
369502,736683846
401443,427116871
407071,39487505
359971,193812847
284708,883664131
246058,48532176
257755,210353851
277397,609275818
272401,562047958
247103,904075146
201763,228731394
97639,6794489622
-56322,1327991486
-171939,411473274
-202164,319896698
-182239,214218616
-171692,720033884
-206730,977366924
-274394,948554039
-332989,732099533
-363357,682595015
-363456,795215487
-327109,678937912
-268764,089159012
-216270,389402866
-188298,226746082
-194168,826779366
-229705,214993954
-269290,00848484
-273855,090721607
-231804,998310089
-173761,600506544
-128499,579082012
-100944,760311127
-85540,7841038704
-75308,1143653393
-71379,0482227802
-77621,225071907
-82970,3881826401
-72302,5549778938
-47714,2334246635
-18211,4185922146
7013,30951690674
17068,1979703903
16950,6886911392
22670,1037287712
37997,5745689869
55771,0257115364
68810,5737285614
64376,7652511597
38852,0320191383
14021,5170247555
-1978,4840669632
-23330,9323587418
-49724,6820325851
-66712,6359329224
-67487,4510729313
-55779,850921154
-31906,3723258972
1195,60927915573
24865,713613987
30649,163020134
25029,0623836517
8023,46986103058
-13939,6843504906
-26833,7547361851
-27520,6821038723
-22095,0863142014
-8897,18602371216
20152,744307518
37407,4327795506
1886,12234914303
-66367,993999958
-121916,186118126
-152352,352581501
-169585,024160624
-192080,095958114
-228083,645397186
-264631,03768158
-272708,477482796
-234177,989559412
-166890,525614381
-104682,460791111
-61117,6981220245
-29459,0392465591
-3428,57660210133
11078,1646211147
5761,77323102951
-11584,1616473198
-28709,4055924416
-45019,2169047594
-53169,9959204197
-45881,1269445419
-33575,1209983826
-20651,3263225555
-3119,27753162384
12750,754720211
18329,8012318611
18745,3353161812
33998,6538963318
76298,7514206171
132335,25310564
177992,571409225
199560,455247879
204685,114577293
216774,786688805
246345,587717056
276386,762338638
288873,246838093
289109,442525864
269672,278310657
183888,924088001
35762,0980463028
-88524,9166836739
-136474,166856289
-131934,199339151
-125547,33766377
-152520,0904212
-205579,865825653
-248160,059721947
-267740,211012363
-273221,225704908
-256595,510793686
-218082,758459091
-175272,142402172
-145252,978681326
-143421,467456102
-172194,209964752
-210346,859986782
-218846,967365742
-181909,109068155
-132595,06014657
-102788,732470512
-87689,7412853241
-73096,1218452454
-56946,6361091137
-48075,1527996063
-55240,7929229736
-70112,3249769211
-65918,7510285378
-28661,1710300446
25340,8016090393
70912,4680261612
96024,9474163055
111613,847439766
135457,455118418
167835,040272236
195788,480293274
207912,424892426
186010,228090286
122248,169915199
51803,0881257057
4156,47657060623
-31086,7420120239
-62435,7004909515
-82788,8876459599
-89290,5069785118
-84874,5793814659
-65675,7860865593
-24516,4842247963
29515,2838671207
76463,4592911005
102930,343789101
104458,131408691
92888,9900565147
88317,4519224167
96062,856867671
107414,584560394
120238,157394886
126393,268302917
90261,6378223896
11147,2280478477
-59458,1977787018
-102197,111637115
-134022,464183807
-166257,990571976
-202481,467619658
-238133,349276543
-255309,183579922
-228283,674454689
-148474,338775158
-41767,9215067625
48448,0647559166
98375,0512733459
120184,091907024
137198,676897049
155940,114234328
167756,549235821
169254,638853073
173116,868711948
192875,74473536
225556,735901833
255471,525313377
273932,009339333
279005,703418732
270114,642837405
260591,325649619
258189,948791981
251791,67997551
240393,811655045
233879,694803238
230938,701111317
224232,307621002
205253,230768204
175684,126450062
166253,531272173
195228,038078904
231526,231966972
237015,059682846
209751,100989819
169384,635807037
104490,521386743
-9840,38388442993
-127075,48704195
-168921,996034145
-131904,589116335
-78574,9764947295
-68572,207244873
-113314,08564043
-175641,98049736
-233635,053085327
-295881,76877737
-340280,091260433
-336944,649059296
-297763,106479645
-258148,412081718
-252125,618628442
-290926,363705158
-350154,382342339
-383634,578174591
-357674,528029919
-281643,499065042
-196046,134482384
-131928,598531723
-94286,4183673859
-75705,6702241898
-72736,5239384174
-82682,1541295052
-90550,0883893967
-75980,4237289429
-38572,9666194916
3628,20862948895
33375,2582917213
40985,5703277588
34803,8943319321
31410,9805598259
35196,5355634689
43546,7153811455
56506,1737356186
62135,3217144012
45626,2943315506
22402,3126847744
5860,16435956955
-17007,0293588638
-48671,4362845421
-74084,2078838348
-85133,4821972847
-82354,4529747963
-65072,8608760834
-36802,9275369644
-5180,96377944946
12746,8242995739
-5141,70296382904
-51402,7493824959
-97106,5608282089
-126551,809716702
-142036,98479414
-150701,72038269
-149324,957351685
-122090,635052204
-70320,4439327717
-42371,3323836327
-72674,8762669563
-124311,256103992
-150843,501803875
-150162,943072557
-150021,136742115
-173479,21608305
-216299,74738121
-252215,743624687
-252297,249346972
-213322,881813288
-159862,313031673
-111356,832241535
-67486,8999705315
-25158,8749616146
6210,56986379623
13855,3549118042
3765,99234342575
505,704267978668
20878,7726525068
60242,0711357594
100601,29633379
129366,52939558
154642,272375107
190067,927853107
232933,635509253
267818,189436436
283305,126037121
286919,237707138
296561,493716717
314240,0312047
326226,429354668
321542,246200562
302006,481773853
288968,549571753
302132,462224007
328456,129745483
342528,914676189
341697,996329308
336795,984966993
299825,212369561
185976,395496845
40337,0654101372
-41261,6320328712
-41398,4042308331
-17579,9587382078
-26537,2980546951
-79551,2992649078
-157490,569639206
-244165,556909084
-308099,137371182
-314603,308351517
-275072,705159187
-226655,297858238
-195515,521269798
-196338,278253436
-228901,543160439
-267836,756119728
-274479,052607536
-230452,308048487
-150563,517359018
-69524,3318991661
-16639,2510204315
7866,59461736679
20497,2046716213
29306,0339856148
34583,4707798958
37509,2439870834
37015,889336586
34198,0439457893
38867,9592610598
48046,6625752449
45390,584227562
31507,9569926262
22235,4477162361
25734,2789751291
39472,3237190247
62782,3800230026
87126,2120761871
76512,5757441521
15076,2325078249
-60490,8439612389
-120974,418178558
-166491,945433617
-201250,325090647
-230088,684121132
-254330,355779171
-262209,60964489
-231665,854466438
-159851,141527891
-89538,4901058674
-63531,9381308556
-72146,4795460701
-84000,0712718964
-86494,36195755
-87781,5134217739
-99875,7826390266
-118447,109722137
-120331,371016026
-99531,5409209728
-90211,3845506907
-108651,120474339
-126347,068603039
-121130,251047134
-99295,1825582981
-85277,9397324324
-98705,1990704536
-135658,262213707
-184663,429563046
-225910,526536942
-229576,388300419
-197975,622790337
-161380,693935871
-134638,947319031
-115863,319308758
-104404,536081791
-102576,015722752
-102085,883142948
-89162,6126322746
-67345,5349429846
-46156,5871274471
-28182,0816893578
-19900,6147699356
-18181,6485395432
-8629,8274371624
10679,5922706127
29623,8412675858
44719,6435570717
69006,8262019157
114229,256912708
168503,920636177
208264,779827595
220060,204951286
210443,930186272
206600,021061659
227101,349455833
256110,033676147
271916,334454536
277074,785292149
283557,622932911
285834,930750608
243603,423210621
136735,420348644
33073,4561338425
3281,72416472435
28007,3492208719
43053,6144556999
12603,4534244537
-47056,6236023903
-118588,55038023
-209393,742652535
-290711,339644432
-313648,872791767
-277789,020188332
-222239,995227575
-191580,937382221
-210572,764184475
-264359,342256546
-317830,211948872
-347217,435525417
-336584,856708407
-287624,975596905
-229731,559778214
-187410,148816586
-165465,734838009
-164033,405320644
-180132,4021101
-195896,992787361
-182638,499190807
-131956,721553564
-66534,2104216814
-14251,8230428696
10960,3795833588
16710,7124662399
21279,7526116371
31218,7651870251
41885,9502830505
53506,4684104919
63479,0706291199
50088,4676084518
7371,54802691936
-40134,063955307
-80969,2989463806
-117405,417755127
-145381,606693268
-163752,71385169
-173993,904341221
-169252,76242733
-139159,078567028
-86066,0396118164
-36077,4666614532
-18329,9678640366
-30232,8022680283
-48037,2944254875
-57085,9307787418
-58957,6227099895
-61119,1760354042
-61557,3181891441
-42751,7381052971
4605,93190431595
39703,6662375927
8849,18472719193
-65673,579246521
-116753,232081413
-124219,795741558
-118697,293624878
-135345,712024689
-179105,550718784
-231781,476293564
-278101,995301723
-298262,469567299
-278041,644388199
-233442,36362505
-187626,711497307
-151029,069536686
-131959,414304256
-136647,9702878
-153661,591548443
-152572,484148026
-112106,852987885
-43055,0809550285
23300,2280831337
66801,8616986275
97104,028169632
132809,434152126
174630,10585022
209990,692350388
226835,149745941
224586,481935501
220199,909211874
226285,209727049
231659,927139759
224699,513470173
215585,008322716
224547,687867403
257104,770231247
297133,09411478
328658,069616795
354981,044950962
384401,764232159
383470,098077655
294460,785895348
145992,770445824
38847,0035295486
9146,94252252579
12769,2721389532
-730,512764930725
-45533,8744339943
-92822,2587313652
-120017,212393999
-151489,118604422
-195005,407316685
-212309,12043047
-189249,360626698
-155161,815486908
-149280,783841252
-190586,202553749
-258873,080151558
-318731,479055405
-351653,072347641
-344749,006371617
-296409,318154812
-234592,128986359
-187083,201268196
-162388,978565931
-162315,46160233
-183147,742730618
-205492,034266472
-199590,749409676
-155134,473400831
-90539,0008232594
-32317,0505094528
962,475744247437
12453,0243849754
20264,0471322536
33358,4521694183
48774,4143843651
63796,4499444962
74722,6271967888
61788,8136873245
13434,0492722988
-47160,2271003723
-98138,6909275055
-135759,91264677
-158577,383934259
-169565,741767645
-173926,162256241
-167026,253551483
-141578,032580853
-104472,796018124
-65706,7026793957
-33612,891409874
-20743,4531002045
-23934,0702505112
-24936,8697035313
-16458,5141938925
-3759,64277410507
12084,5574941635
42974,9740152359
92992,9061834812
118487,600495696
71688,2380776405
-13770,4089541435
-68826,0273523331
-76397,9589276314
-67254,1469390392
-76661,7575087547
-111314,095324039
-156035,756299496
-196908,126481056
-212929,809669852
-190353,110933304
-147198,965877056
-105173,401037216
-72092,2335960865
-55762,4584267139
-61485,7714362144
-78025,8579115868
-81362,2384338379
-67795,9655714035
-54299,3302826881
-43182,1864919662
-30795,4055342674
-18189,1450099945
-3994,31048440933
6935,29184126854
7388,61232423782
3279,64429521561
12778,2037630081
47538,5282232761
98614,8287937641
143003,436121464
167229,3576231
182894,894603729
209340,322763443
247594,316147327
282680,493369102
305990,619572163
327426,332745075
359233,698664427
385585,33806479
353959,830862045
247961,829348087
142925,897177219
105326,332831383
114057,934696198
114667,077425957
83203,3737463951
40481,1180653572
15626,8021407127
-9029,3992125988
-62627,5562243462
-111876,038783073
-111014,97880888
-70699,6342320442
-38786,888210535
-54124,9854259491
-114797,419855118
-192787,633995056
-262480,39090085
-294073,348944306
-272158,711067677
-221986,370100975
-174837,862458229
-143554,539003611
-135633,431910396
-152064,566063404
-175261,333147049
-171381,974506855
-130822,288104534
-88353,8647525311
-69035,0067434311
-65599,0348615646
-67182,6488580704
-67339,3664889336
-66681,4705735445
-70928,0888547897
-74418,066236496
-60946,4794821739
-26426,28510952
17821,8902208805
55205,0204019547
71227,4795265198
71628,6577634811
76055,0515670776
91540,1528482437
111916,736869812
125441,854972839
119697,176413059
95335,9877386093
65721,812636137
37626,0801477432
6866,73972415924
-24485,281126976
-43863,9474406242
-45031,0455034971
-33776,6968631744
-14353,4741292
19673,9741506577
62818,73929286
78496,0643819571
47972,4417457581
-631,577095031738
-37455,5344781876
-53227,3223176003
-55831,3345594406
-61840,7026834488
-72894,5083208084
-83582,9002385139
-103778,053873539
-127600,955540776
-132246,694148064
-123776,670476437
-119489,012477398
-122844,261709929
-134742,795414567
-154500,079558849
-170190,003265858
-157038,796280861
-114870,800602436
-80725,1737765074
-69997,7053871155
-67040,1581263542
-62507,8998813629
-56597,2670297623
-56904,997304678
-71698,8518977165
-92456,4687256813
-94060,4545331001
-59790,8937139511
1061,3386027813
63388,5596137047
109363,015086651
143479,803429604
179095,067168951
215701,886765957
240567,066164494
248533,421825409
254741,137857914
277157,087375045
311837,415619016
336305,86809063
325681,715910435
285953,553977489
262680,638752103
279196,797536612
306873,149858952
309706,951660156
285873,116702557
249120,889254808
168261,354085565
19685,4068603516
-122887,90886116
-179182,199028492
-159931,851112843
-130671,925667048
-146388,592232704
-210387,089427948
-280578,655631065
-324567,93748951
-337230,144449472
-313370,880558968
-259142,802704811
-196614,360572815
-146709,832235813
-127283,807896972
-145210,173180103
-183538,016259193
-202964,616483212
-182944,057106256
-147361,317123771
-118989,582749367
-98338,9220581055
-83267,9530935287
-71570,356508255
-66931,3439974785
-74888,1028752327
-85219,3044700623
-72203,4940476418
-19093,8966391087
57989,6209894419
123549,847733021
157072,446886063
167114,954675198
175229,155563116
193531,606682062
218825,99260807
237162,390900612
219606,377725601
144499,989192486
40047,8646258116
-50502,0089869499
-119619,5321455
-174042,657095432
-212835,935535908
-235114,696923614
-241020,748828888
-224644,105703354
-172935,89650774
-92689,1122703552
-30479,4258161783
-18726,4815325737
-39742,8704462051
-64337,0575857162
-77649,9293439388
-81726,872995019
-88223,6323485374
-97065,8904795647
-100536,890919685
-111023,1909554
-134332,037779272
-148716,750495434
-149929,935723305
-149687,597082615
-151987,078518152
-161719,480831742
-180632,928510189
-197969,346822262
-194042,933698177
-157976,388922691
-100593,836845279
-44613,9726819992
-7553,2305188179
10789,7475266457
23506,1622548103
35733,9881435633
42213,8757300377
41492,949192524
40404,0128808022
50986,4177074432
78529,5320593119
108738,868314266
125534,390318394
135994,39370966
156856,808828115
189438,349603534
220770,156038284
241786,879290581
261688,770291328
294102,544537783
333275,983078241
357332,95123291
338084,687971115
277890,523301125
231443,84795475
233025,924282312
253413,994277477
251559,718148232
222836,986059666
188152,894741058
131497,953842103
20124,5153570175
-98106,9804787636
-142730,875761509
-111718,338595629
-67812,8240309358
-69233,1513843536
-127772,400140285
-218610,827382565
-309776,752781391
-361077,725157797
-347743,981446266
-291889,782178879
-229373,250002861
-182012,259513617
-164525,721189201
-179609,517223835
-211930,049562931
-235025,584839344
-225636,78183341
-181699,268660545
-126199,045842171
-87404,2598838806
-73406,4142122269
-71640,6013178825
-71469,5971347094
-70107,4600491524
-60270,1539344788
-35972,1607437134
-18052,3999996185
-29912,4514671564
-59974,6376237869
-92893,7139616013
-125658,487253666
-152436,388363361
-170489,727844656
-180746,666293621
-177682,952989578
-148540,201816082
-91573,7352366447
-44071,0459500551
-48578,0491819382
-91101,7506036758
-130219,787565231
-149418,768243313
-158191,560418606
-171240,339679718
-186567,563409805
-181964,585431576
-138568,925851583
-76687,6316941977
-47351,7309985161
-62346,3233718872
-78448,7362060547
-66809,6453194618
-42841,0148209333
-36172,0211591721
-56453,617389679
-91413,2933759689
-139505,892304897
-194136,803035975
-222892,564311028
-215186,132119179
-189037,972866058
-161644,673728704
-147948,072889328
-155842,461573124
-174861,61749649
-178303,989039421
-157919,119880676
-137225,249702454
-128448,228775501
-121916,544637203
-111326,502998829
-97258,3241972923
-86662,936060667
-88147,3466520309
-95986,2929615974
-87277,2444934845
-46714,5618236065
14155,520450592
68995,3112068176
100679,053137302
118209,557410717
142977,178596497
179933,688325644
214954,431592941
237279,617078304
258378,219983101
294472,35678792
338257,750486016
368559,909558296
368855,249951363
341018,835393906
318507,878208399
330716,952046752
361838,191578388
378919,183493614
375191,875204086
356599,264256001
284197,522938132
126033,713941097
-41819,9472894669
-126417,896103859
-129592,246717215
-112160,538206697
-128543,128406525
-187993,580686092
-255543,26628685
-303753,491292238
-326622,578203917
-310428,545421124
-258316,393403053
-198195,181839466
-154799,186507225
-146172,362340212
-175571,974301338
-223216,895452976
-255068,260512352
-239868,824228287
-175956,155046105
-96819,9743652344
-37469,3170900345
-5929,94688940048
10723,0553631783
21717,356274128
26580,1144475937
26906,2004041672
24856,7957277298
24468,3887991905
35727,0374789238
52175,9337859154
51948,7400960922
34813,4517097473
22517,6312644482
28194,3058142662
48421,8486151695
72562,7349863052
80929,4577431679
58741,0188484192
21459,1208167076
-12233,8021216393
-48985,5607652664
-92435,8675098419
-128635,656526566
-146442,202767015
-144561,095781803
-122625,029415131
-86223,9391365051
-51287,6797320843
-22466,1312391162
806,520305633545
5438,25893449783
-10144,3718075752
-27359,0888214111
-33489,8117209077
-29139,823515892
-14957,2119765282
18187,7869696617
59670,9082078934
54680,2922601402
-16124,4409031868
-95394,3785147667
-138133,412696362
-152850,373855114
-168497,451224387
-203852,050075531
-250996,456275463
-278656,38231802
-257495,152559042
-186858,634497166
-94401,9201533794
-12046,2354493141
50304,1717252731
99532,6061048508
134128,908560514
144563,986301422
129721,588474274
92494,1341552734
44044,4816178083
14623,9399582148
15638,0996294022
25370,7677688599
32934,9327168465
46816,7862553596
67693,4544256926
86391,0204768181
101528,058161736
126571,755216599
172850,714433193
229853,503283501
262938,300292969
240129,804458141
187047,008232594
165257,319015026
187111,052529693
215654,648759365
221087,381482124
207411,987591267
197791,96637702
178455,233984113
107882,360777378
12316,8276329041
-34732,3574085236
-17274,6522161961
17008,2939417362
15900,05575037
-32250,1268486977
-104512,720842361
-182862,378078938
-244971,267533183
-258570,168437958
-227830,640953064
-184619,288620949
-150572,279130936
-139269,430297852
-155439,74802494
-186165,387441158
-209652,445052147
-204449,989872217
-159934,606086373
-96852,4544844627
-50551,5194644928
-31826,7912936211
-27147,8331086636
-24382,3221416473
-21604,3830747604
-15423,6718530655
-1546,11044597626
17377,3591291904
41006,9676327705
63209,2615413666
65574,9288468361
47509,6487874985
30458,1587619781
29436,0678297281
44792,4376964569
72632,9169392586
101347,207587719
97169,3384912014
46291,2692921758
-17300,7560081482
-71285,7150673866
-117393,264980793
-153055,578636169
-177780,991755545
-193126,081861973
-193001,342854977
-167587,112570763
-119732,591056585
-63947,9573739171
-15437,7590537071
11863,6327915192
19304,7328681946
22018,2608830929
26700,0903872848
31071,637172699
37449,7622904778
58898,3495125771
95515,8854322433
97084,1631038189
25651,9244964123
-68564,5600214005
-122385,857806206
-134183,974262953
-140338,657846868
-170893,532417774
-224943,83494997
-275168,856003761
-285405,194765568
-241943,483000636
-169791,752012253
-100407,636457443
-42016,0656733513
8518,97226858139
44971,3935422897
54573,2353849411
39029,6149907112
18532,6209511757
3677,51292467117
-5665,88959753513
-3527,08509874344
7822,70534420013
23209,4257054329
45209,8138997555
70098,8817577362
87396,7402038574
95917,0827870369
112254,92089653
151882,41930151
206508,789123416
250071,875272274
253586,362724781
220713,120156288
199586,948833942
215813,387447119
244008,843241692
254705,130583286
247556,688432217
241615,761517763
232123,106891751
171975,371662617
57492,9275465012
-29480,1589441299
-38417,2302019596
-7177,69729220867
2177,18834733963
-36487,6511850357
-105296,488195419
-187517,532617569
-267957,276546955
-307577,049941063
-291927,065264702
-247581,644234657
-204332,773890972
-185481,943391144
-201309,04498291
-237244,822623253
-268814,983373165
-278172,674545288
-251607,434612632
-198002,888759136
-150404,373520851
-128087,068058014
-124584,898261547
-128159,908564389
-132546,308128834
-128268,197523117
-100551,222234726
-54419,3758459091
-15860,0127675533
2681,5509929657
1587,96954917908
-13651,132496357
-27955,9161973
-32100,2063260078
-27459,2595014572
-14815,7093362808
-2000,91929864883
-6229,3337597847
-26545,6689624786
-48092,4626073837
-71481,1437706947
-100596,330619335
-125927,134065628
-140425,468969464
-145949,034590721
-139076,307350636
-111285,734896183
-67611,631336689
-24831,2547829747
-524,062135696411
-4298,4249458313
-21242,422565937
-28874,6555783749
-23596,9143022299
-16812,5724344254
-14736,8912301064
-3303,61107969284
18807,7799949646
15188,7674373388
-24369,7885842323
-62872,4435873032
-77116,8107585907
-72490,2132263184
-68059,3241548538
-81369,2850837708
-109876,79011488
-134305,496988297
-137766,216037035
-114958,412750125
-71847,1075901985
-25725,6786518097
10615,7080984116
38868,0465707779
59563,0192945004
65910,775288105
58922,1398162842
47291,5667510033
32962,0544695854
24620,9201775789
33945,6382441521
49015,3165445328
57874,7453317642
67761,6521208286
82298,9938825369
95075,315012455
104967,790048599
126369,753628254
173536,944431543
236719,061747313
289944,281275749
316595,696616173
322490,53783989
330102,904220343
355217,167189956
388511,775248051
411524,623404026
423698,008270741
436998,47454977
445915,916946888
405371,126324177
293450,347961426
182092,618490219
145162,320340157
165179,133127928
179093,363034725
150128,494116783
93362,6414213181
22870,4740757942
-83072,9060308337
-200376,077139378
-259268,464950562
-248268,061843872
-213605,148215771
-204412,841431171
-244449,05393362
-316476,059782505
-382127,074702263
-410803,379519701
-382775,781439066
-305461,843996525
-219847,042238712
-159913,70220089
-131606,982864857
-129574,203982353
-146941,752112865
-167510,821663857
-165205,137310982
-132666,173555851
-88662,8148423433
-51047,1426901817
-31716,7334632874
-31367,6080708504
-34173,2975702286
-29192,8702895641
-18653,3281931877
-3946,74105262756
13955,3760786057
16672,4679801464
-6631,68204009533
-36518,2708415985
-63741,3752946854
-92461,5859780312
-115227,094287872
-125230,261996746
-124682,517940044
-113446,281263351
-88753,3870654106
-64087,6036889553
-51927,656435132
-46051,4920830727
-48230,4850988388
-61442,5451841354
-74303,9893004894
-78450,4897930622
-74818,911667347
-63952,2914738655
-36117,4527454376
-2566,34069299698
-11103,6379866004
-67051,4967775345
-122437,830434799
-152544,596674919
-163975,990324736
-173608,739906669
-196163,132045746
-226509,389446259
-246209,140200138
-244655,097299099
-216196,675743699
-163099,743744373
-109160,823239326
-74358,4608864784
-55589,8892087936
-45861,0326981544
-45261,8280081749
-50046,1022310257
-49937,9439587593
-47178,8913955688
-47539,9530438185
-43035,0806851387
-35087,1653189659
-30419,0674834251
-23331,1674315929
-12727,2533681393
-5775,7345123291
-1884,41879224777
14421,6770262718
59258,6539962292
125177,001207709
184120,480450153
218286,298177719
235253,777228355
253315,155464649
282933,904615164
316161,99691534
336633,926934719
345307,888387203
356877,398265839
373638,022237778
370433,006972313
312533,97095871
225168,908231735
185040,438666582
210129,135712802
246676,350059986
245068,505104065
202369,034703255
121125,939458132
-14875,7807810903
-162280,780079842
-241847,473817825
-242887,240978241
-209227,023207664
-187961,173848502
-207872,219431877
-260641,583302498
-312838,193462372
-341367,283017635
-332197,248183161
-279733,421879292
-211508,008450985
-163052,963390827
-144970,995040417
-152506,764899597
-177062,542503357
-202047,371506691
-201027,048864841
-169443,63293457
-130080,892570406
-95399,6210489273
-71925,209215641
-65914,6517615318
-69495,5703763962
-74071,0153281093
-79193,3526935577
-79419,6276865005
-65941,5344495773
-48412,1860432625
-39578,6917769909
-35330,5280847549
-38424,3378272057
-54066,3203144073
-71503,5853514671
-79601,2324088216
-77951,5843424797
-67015,4975848198
-46597,6428799629
-22356,5545358658
5368,44378310442
33876,9540543556
45776,7828612328
38655,128970623
32881,6608388424
41032,6600523591
59885,3122544289
83451,1491680145
116385,210450172
152374,681222439
137187,026436985
44147,9742984772
-64382,1492424011
-130394,483972073
-154820,517326117
-166561,609669924
-193003,363796711
-235586,399681091
-266141,185359001
-269930,174150467
-264530,473462701
-251099,611038208
-219083,033243656
-180558,875694752
-153574,760447741
-149700,185800433
-173457,395208359
-211749,011331081
-231389,808576584
-212594,784528017
-172142,493013978
-129616,465646267
-90804,3305277824
-57341,3096966743
-26630,4125788212
-1888,02283346653
7223,46516370773
1208,06797790527
-10131,4424552917
-18900,3364889622
-17289,8807001114
-6351,51178646088
917,263209342957
4771,49316644669
19447,7143583298
47933,1103971004
77849,1517896652
99049,6779136658
118298,64492178
124887,474286556
82524,6325471401
5085,6416053772
-56540,524872303
-86913,2922673225
-96191,4397556782
-99368,7423034906
-109839,418650627
-124880,988440037
-122091,238267899
-95052,4606089592
-77784,0999327898
-85610,7440671921
-94713,1116490364
-93512,8357400894
-88300,9937078953
-89347,5528539419
-106264,194348812
-134208,626560688
-156867,450775623
-161029,973320484
-136193,228009701
-86665,0002851486
-39468,7637114525
-10804,960796833
6080,60400629044
17916,7181093693
24075,9054226875
27204,9179019928
39508,7038941383
53789,4678113461
45892,0220497847
23333,8090372086
5435,42326974869
-5614,09013319016
-9042,81342458725
-6616,83623564243
-5964,45295524597
-7520,81741285324
1596,13405656815
21865,9212367535
36266,4722534418
42092,0489468575
44373,8687496185
44478,3790626526
49583,4818131924
62262,9254742861
73289,0573968887
77156,3900952339
80608,8182024956
77810,6015169621
58118,9884485006
38237,2167363167
30461,5034561157
26967,3192782402
24398,8322527409
22127,5727393627
16526,2003540993
9563,67197751999
15185,718313694
46623,9601061344
101710,278894365
161004,689451218
200857,605530739
219228,778419495
234420,70467186
256883,050293207
280729,674951553
295263,426929474
285459,275491714
236528,738629341
163306,903217673
101978,318755627
62737,0398669243
33901,5799622536
13023,0199096203
1797,03878235817
-4311,83586478233
-4723,09889984131
8011,18669652939
24566,8188390732
30172,1084184051
32229,3010969162
34432,4391722679
27683,3138518333
13611,1169772148
-1649,16071490943
-16621,977856636
-25546,5453562737
-11837,2473626137
40546,706517458
123344,163589388
203320,803331614
253334,356190205
278398,567632198
302200,681099415
334331,747351468
364652,43049407
381787,717718601
391936,883558273
413142,267465591
448146,814871207
474855,309908628
452726,928949356
375886,18079567
309466,118980408
299021,362687111
312045,664295912
294020,744267941
210659,00702858
67211,0708010197
-79662,2463238239
-169068,403297663
-190777,549314976
-170973,352797031
-134813,873927116
-101037,544286013
-85175,0734727383
-87051,3141217232
-89671,8344984055
-80217,0958380699
-54651,0241886675
-17045,1113295555
13556,937857151
26630,6392745972
33221,6025667191
42534,4345753193
51611,7748212814
59434,1457753181
80538,2507658005
131208,359131336
203169,786579907
264484,257098913
277285,047385216
237301,077228069
194128,531002998
186157,240030348
198250,362403154
199609,23834753
181481,222656727
163583,942167759
167169,746138692
188295,181658268
211149,547106743
224460,63358593
227434,968496799
234440,263011634
250166,016278505
258873,616914272
256981,912175655
259676,805205345
272276,216643095
282322,944550991
259950,300792217
194579,941485405
139039,67980957
137726,348294616
161260,706668139
154845,885574341
86537,4735069275
-40217,1494131088
-182831,791827559
-285942,287838221
-327611,065984726
-325231,267548561
-303935,79162693
-284527,431193829
-280795,415436506
-287217,038548946
-283471,996184349
-262745,28435564
-235252,017243147
-205756,205144644
-181654,20859623
-173455,077090263
-177498,86935997
-186290,254655361
-198285,517603159
-206024,876700878
-193654,888703346
-156457,144310951
-103534,630944014
-50133,1178603172
-18228,3998613358
-14814,2387647629
-23653,2665863037
-29789,2876889706
-29616,123796463
-22267,7522888184
-4025,25688695908
31909,1258244514
86503,8687542677
140060,34875536
167329,650512218
168650,346525669
164851,858884335
171238,883469701
187406,880404711
205598,190974712
229046,517738819
268497,560127735
317806,747653961
351840,591271639
332905,018191814
254617,002257347
180614,901804924
161706,923195302
172349,988452196
157288,5312047
77441,9123425484
-63475,3042516708
-209438,817252815
-300677,232945681
-330122,735176086
-324599,46441412
-303238,767549038
-279741,230502248
-268156,775386572
-268454,442255497
-269000,664517403
-270990,126169682
-277216,827231884
-274915,004976988
-264699,85326004
-260664,794885159
-264821,043700695
-272571,797225952
-282993,5451684
-291207,315492153
-281257,319242954
-243730,070673943
-186384,394580185
-125861,830748796
-83863,1587429047
-67748,5740036964
-62343,299695015
-54944,8103193641
-45626,580119133
-35589,4622802734
-17718,1278476715
19513,2914218903
75632,797011137
129978,515149832
161128,487455368
169304,701580524
173358,408838987
190481,840440035
217069,524661064
236759,011777401
249262,18675518
269305,526676178
298573,733585775
317912,484215975
291527,866143227
212901,001799583
144883,183299541
137433,326666117
160645,908568859
160342,079854965
122725,099715233
56918,6590037346
-56512,388051033
-210528,335897684
-326389,621893883
-353333,001571655
-319696,778434277
-284138,840663552
-291818,178409815
-346438,837540627
-407953,380936146
-443012,78249979
-453182,159699798
-434995,751314163
-386199,182357311
-330596,987224102
-293566,117946148
-287760,040510356
-313055,777672291
-352188,218317986
-369859,883302212
-335478,63385582
-255197,102207035
-163823,857647896
-94198,069463253
-55535,7851672173
-34301,725083828
-17064,0756375343
-2011,29259586334
10351,8073015213
28485,3344097137
64011,5563883781
114548,995389104
160407,698580265
183045,312634468
183525,553562164
179693,722450256
190407,305007994
218575,842874527
246814,740225792
241110,803411484
167974,429226398
46311,6523540765
-63829,6503472328
-140713,787106514
-198638,813357353
-241858,729106903
-266471,218392432
-272828,125312805
-259765,655583858
-215970,342664242
-143030,096459389
-86918,4208213687
-84460,069606781
-113742,274080753
-144709,283401012
-167667,435404778
-183344,463105261
-198787,392810822
-214340,132457733
-213441,075120449
-192331,687196732
-185124,293204337
-202231,84441328
-213977,697182178
-211318,783605576
-206545,632821321
-213178,248086289
-240100,916212082
-278219,811709404
-297849,499231815
-267281,466301203
-184180,849291384
-81963,7598724365
1304,54379463196
56223,5856075287
97395,9853973389
133693,431375563
159351,450944901
167910,840171337
160540,903216839
148110,94963789
148100,271766841
163273,779676914
178652,709267616
190970,22013998
213830,573935986
252298,156453967
293587,322566986
323350,40158844
344606,58961916
371903,629889727
406640,728416502
421202,053851604
371804,667706966
273671,083776474
209779,940759182
213243,01106444
238942,167921066
237784,421603203
203136,615048409
158796,772221565
90845,664956972
-28282,4906821251
-145053,905665398
-188086,072464943
-164620,515775681
-132358,970677972
-141551,068744659
-200344,55164814
-272130,294213772
-323500,268591881
-350504,352630492
-344132,959284782
-299239,252336025
-239201,905009747
-193727,059350967
-181383,426970884
-205460,313759327
-248841,503804207
-273934,430085182
-249480,986654282
-181423,388281584
-100994,69875145
-37768,4764432907
-2240,47300434113
17127,3268370628
32517,4927712381
43776,655749321
51407,3450117111
66563,1325054169
99139,723637104
144988,113471031
186406,724914074
204019,176288605
201440,415640831
203724,483086109
225957,606243581
261969,584932804
295806,795884132
299855,908450127
240904,521734715
134388,504841849
37705,4837765694
-31816,7428588867
-92894,0556116104
-148508,167330265
-188131,047119141
-205139,649022102
-195905,28083849
-151580,894803524
-70863,7380218506
4389,15637719631
22091,6756079197
-10014,6915564537
-51229,1715378761
-79364,0579938889
-96087,9554837346
-114587,171904087
-136716,961565018
-148929,848721504
-152798,401144743
-156933,290607065
-147284,198827505
-121794,110365868
-99240,4942917824
-87528,0555622578
-86403,558159709
-96716,7794809341
-113959,781293392
-117022,87563324
-85713,9501595497
-28850,6800334305
30319,5688478947
75821,0952396393
105667,176068783
131684,513225555
159907,538739324
181786,031179428
190699,684002399
193931,318778515
207381,321324825
238597,705818981
275956,729349375
302835,66289711
319740,068977356
341960,894716024
377492,087085247
416105,516577959
441334,881215096
452265,418595314
462688,852661133
477991,605340116
486307,643476009
456686,411732197
382110,517405987
321359,730471849
320010,776974573
348232,781846285
353031,580363274
319068,7940979
267945,593945503
188425,322112441
52326,5531380177
-85214,7214512825
-142636,545350552
-120587,667360306
-81371,2584884763
-84638,7146716118
-144688,374738693
-225015,732886791
-285219,335998058
-305995,798700988
-275149,120037556
-206827,30510664
-136110,063499451
-85582,3734331131
-66373,2288101912
-80754,4094033241
-114166,258387089
-140639,347037315
-142055,554118633
-115595,319247305
-70602,4438209534
-30527,2008991241
-14885,5977077484
-18193,1750216484
-26313,0276711285
-32108,6399269104
-28710,9632129669
-8652,7388381958
29568,7694835663
80863,3597932756
129727,755966663
152703,953415871
146300,097348213
134516,94810915
138917,439397424
160217,652977943
185714,519318581
193532,419826508
160740,27619648
95472,1799752116
30692,589717865
-23043,4880332947
-74958,8802647591
-121648,568529606
-152855,462138891
-166191,414091587
-159723,723601818
-124968,704499722
-59093,8974366188
1580,4675205946
4782,55616974831
-43930,8554434776
-98115,3145618439
-131725,739548683
-147719,820544004
-162663,06718874
-185214,797502995
-199821,867296219
-199866,152584076
-207247,73154299
-219507,224764347
-214318,178607464
-195094,471176147
-178488,208613396
-177486,506558911
-198278,108427525
-232193,659224033
-251581,105036736
-234647,159740925
-192694,499514997
-145785,639032125
-102275,335438728
-65932,8141140938
-34175,9026720524
-7376,33702242374
5143,18657040596
1142,9905257225
-2631,15304040909
18034,7631571293
67686,3362467289
125392,550251007
168933,913123608
198775,026310921
233774,953691244
283192,332893014
333573,659508705
365546,836967945
379453,416838646
393287,268302441
413973,762822032
430119,061439514
413889,758466721
352863,053881168
296516,405697107
295185,741716951
327984,725465775
343598,156116962
322287,064450264
283780,832553864
229574,924654216
125017,56174469
-5643,00379800797
-78240,6919279099
-67134,6124453545
-22745,627204597
-6597,03631544113
-44862,2894620895
-114255,666529655
-187912,143317699
-257568,653523088
-293206,532047272
-274199,867806435
-226082,727245331
-184229,940142632
-172491,236883402
-197409,876532078
-242343,160457611
-270295,159156799
-251824,291454315
-197482,748922348
-134463,956292152
-81238,0582017899
-50924,3368940353
-42329,5748291016
-45546,6735563874
-55134,9588699341
-63006,6162719727
-52610,0351362228
-9711,00154876709
60479,2779297233
130360,35094738
170457,795111656
178166,270971298
178428,891925812
192453,077681363
218936,54855442
246585,821492195
255614,760058403
214317,435257912
128183,54849869
46100,6387915611
-13259,0036692619
-64007,1287956238
-108495,246164322
-140230,81185621
-156196,564092875
-151705,514014721
-117400,273356438
-51693,6515488625
19239,2161836028
49579,5461554527
25394,691198349
-18793,2216801643
-49046,4851875305
-61236,0496361852
-67588,3294117451
-75880,2431969643
-75294,7093906403
-57782,4829692841
-56388,7737898231
-94990,2805013657
-138192,907806873
-154042,834573746
-149252,883913279
-147195,616820157
-168074,856393337
-210526,04434824
-245601,045656681
-235613,267363071
-173502,73747234
-88084,4202375412
-10314,3086285591
48438,5756039619
95160,870153904
135230,373643935
159653,275985241
161556,075719357
146768,310483456
124175,457839489
107297,121430457
108320,923717499
119598,904511452
131011,887954712
148053,053930283
175088,19263494
204625,495963573
226527,77182436
244194,432314396
273688,842091322
317682,751949146
358231,268569946
377271,022377968
375538,849999905
377781,927809477
405781,663010284
448274,134669781
478820,890315056
491136,796013355
499658,763251781
500335,642894506
438551,686815739
293460,203452587
153892,874547482
98961,3075013161
105664,952617764
108545,835449696
68816,7599740028
867,863098144531
-60784,9179201126
-113602,998325348
-156344,991500854
-161828,127533436
-126232,651074886
-78278,7983260155
-52593,4850447178
-71074,5964436531
-125478,38586092
-181201,573670387
-199749,755829811
-162990,835873425
-85929,5528354645
-6188,3213429451
49545,1948719025
81946,0902404785
99015,8800159395
102525,421210289
98214,3559293747
103910,175891876
138358,440629482
199486,895866096
261216,984642982
296762,685331345
305946,417094231
313762,917209148
338701,584793419
376301,705580235
411545,972463608
429396,985135078
406717,785049915
334639,704450428
248367,912514687
179831,114154816
128070,878129005
91173,9291210175
70010,2994146347
59721,9478952885
60301,8627328873
84127,6874980927
143717,26012373
223351,803778052
281123,130131483
294831,699800014
282132,617415428
271778,147800922
275235,483174801
284882,644037962
289899,329253197
294955,824281693
314259,267569065
332027,277672768
317320,35212183
281043,335068703
256418,79327774
256822,828211308
270695,241424441
274149,788698196
256528,921739578
234132,656226635
236887,742272377
276527,559868813
335071,954771042
387141,524550438
424716,536048889
458490,170539856
493773,501797915
518011,467936516
520439,850877285
512307,188461781
516959,858783722
542724,813021421
574862,945349932
594263,061253071
602062,321965218
618480,889877796
653331,971661687
693116,675457239
718385,094825268
727262,134850979
736341,552220345
754019,28398025
769777,298346996
772450,989991188
769594,864310265
782765,278413773
818991,588153243
860363,831002712
885554,77905941
892722,077738285
897591,572543621
903542,935566902
891654,582487583
857736,594269753
828012,116271496
825961,175632954
848210,247880459
870319,648478985
870471,84071207
853964,602352142
840947,745341301
824856,762604237
790573,931476235
754003,641637325
733700,167652607
729771,92724514
730011,402247906
716489,642311335
683834,600441456
650726,842303276
647840,27787447
686420,773627281
744727,627270341
791255,069966793
815625,780509472
829250,566936493
840346,043426514
842956,047282219
831020,135549068
816416,8449049
821622,624393463
850925,424895287
883670,961727023
896542,95720005
889364,471203804
883432,835185051
891197,337589264
904271,750673771
909366,74474287
907558,18903923
913244,76042366
930553,270711899
945131,224979877
942511,836342812
929106,489849091
927920,369550705
948407,81863308
975121,557754278
988036,930181026
986252,729289055
987623,697852612
1000742,73537159
1011600,63032985
1004817,06450844
987822,594076633
984161,334177017
1002487,90892816
1026531,37146378
1036215,49773645
1031438,3548193
1029685,04549408
1036528,15864944
1036965,82665122
1020033,22318935
996500,619013309
988420,5168643
1000437,73455596
1013475,9064939
1010061,92597294
994595,501794815
987498,058504581
999249,472331762
1017706,763964
1024327,40439844
1017011,76238251
1012085,54036045
1019325,43391919
1026680,52777672
1018715,92796278
1001049,6631484
994693,937787056
1007444,47688556
1024048,09571689
1024981,16776133
1010806,40638971
1000691,13994265
1004829,42628193
1012682,65123034
1009786,12661171
998763,173903465
995402,600521088
1004555,14212132
1013527,90623313
1007125,07461119
988243,551630974
978573,369368553
988521,165149689
1003185,52993834
1002447,95350742
985934,165612698
972399,72372961
964956,489714384
944979,622587681
908365,297143936
872927,003275871
856351,077473164
857893,888517141
856542,688968182
833685,168453693
797968,619046211
770180,660887241
750933,804842234
732971,706069231
716975,284351349
703179,068300247
693416,999516487
685011,444126606
665727,087525129
630952,387327194
597044,103261948
589546,346955299
614699,209807873
651894,208894849
674982,784292221
676224,182967186
669658,586529255
667302,650083303
663861,694013476
650997,612013817
635102,99821043
632362,006688595
647153,985213995
663882,316173553
662871,412915707
645293,616788387
632380,550905228
635941,829312563
646279,190654039
646662,961058617
633836,76400423
622394,638240814
620986,101699829
617552,707244277
597801,930136681
569105,14003849
555622,213970661
566849,506483555
584558,662421107
586253,531300545
571904,618659019
559704,817966461
558139,149343729
555609,994255781
538889,616033554
515002,218331337
506239,299672127
519881,284217119
537883,569267035
539509,970506191
526076,543851852
517775,405220032
524630,892386436
534579,671392083
531946,748557568
519325,584115505
514867,439513206
525359,783660889
536555,003445745
532048,524123669
515266,127842903
507631,800525665
518682,806593657
533300,091812849
533139,95998621
519558,687223911
511018,034838676
516829,222905636
525260,781633496
521283,303333759
507629,706746101
502447,458647728
513848,757969618
527584,820329487
524358,542314053
505442,953241348
493309,276050091
500107,958367825
512221,492098927
511531,8640728
500048,95030117
495697,410609245
504183,226130486
511346,207026124
502799,740195274
483609,085880756
475571,973823071
487020,900450468
501146,415468216
499831,124275684
484397,695960999
472739,944238663
476051,5903759
484203,7918486
481007,712134838
468539,360867977
465238,842710018
477360,554634809
488194,906766117
480057,37834549
457702,168189049
437311,026929855
420248,410010338
400296,139930844
375804,579761982
349752,165350437
332283,63051796
325661,075452566
315846,36154902
292199,88677454
265743,361082554
260261,807572365
282961,630197287
315111,717957079
331988,748486519
327113,667810917
316418,03892374
313299,738617659
311337,262544036
298787,260421753
280905,236105442
277529,440191746
295303,345330715
315876,565397501
316985,560237408
300588,317090988
289744,850917339
295400,565498829
304934,754829288
302349,125727177
289100,134680748
281595,062479019
286725,377594233
292903,721880317
285745,849965572
268071,488097668
260907,927179813
274422,006267548
292723,600677252
295677,059961319
283772,453140259
275194,243755341
279245,681579828
284614,944060922
276306,061333656
259060,473320961
254420,542901039
270961,515554905
292383,922919273
297248,949584484
284123,338478088
266106,256108284
245112,02140522
217709,591567278
188230,31769371
162544,4729743
147447,07407856
143926,285811186
139316,179048181
120886,126878738
97000,1864752769
91966,9219851494
114055,107257128
144734,95367229
159549,568846703
153374,104272366
143778,863980293
143621,596796989
144980,138160706
135992,387050629
120966,086330414
118122,555828094
134489,386376381
154177,864328861
156968,901620388
143551,562350273
134249,197429657
140162,644750118
151173,305130243
152183,805639267
143086,38526392
138264,592995167
144871,949133873
151978,450806856
144961,80325222
127686,677408218
121210,090411186
135535,024903774
155573,443536401
160627,288807869
149355,278958321
138992,382730007
141008,955535889
147240,719959557
143624,10108757
131499,850603104
128904,896696091
144920,468007088
163010,539501548
162190,748891354
145112,256993771
130890,519367695
127165,089017153
126086,895757139
118103,66092968
104314,759769917
97469,7216978073
102592,179648161
107708,080088317
98776,6641931534
79886,0718283653
72197,6826267242
85645,653440237
105816,469322622
112361,951072216
102313,687264919
92623,8533554077
95242,5648014545
101030,360174239
96026,3260140419
83397,8571329117
81542,2766370773
98100,7520904541
117177,677413583
118611,786304474
102747,944477558
90352,0403323174
94913,7166984081
106841,449351072
109215,884768486
99979,7119417191
93587,5230312347
99055,6758580208
106543,191528678
101213,861332893
85741,2379951477
78907,3915863037
89729,8696389198
105268,555644989
106538,513158321
93378,7458992004
86051,1732678413
96072,5019917488
109011,676219583
105213,653065205
88089,7462663651
80476,1557836533
94007,41060853
114255,052150905
118805,494579792
105706,663140297
94920,5402183533
96508,4445099831
97837,2197520137
86431,601588726
68420,6239719391
61183,4524312019
68639,2516381741
74689,7380144
64441,8943581581
42968,8830165863
31520,0609102249
42726,8166718483
64595,3651157618
74864,0460677147
67984,9031310081
60699,3421154022
64868,3457381725
70082,4019230008
62657,2012243271
46799,2588348389
40679,5556879044
52586,4142365456
68846,9968295693
70485,8474493027
56890,2949671745
47320,8141646385
53686,8263864517
65505,7755179405
66471,4728937149
55446,8378696442
48585,5748515129
56143,9687438011
67568,6178911924
66864,4509935379
54514,7050700188
47962,8595900536
57212,4640901089
71315,4530085325
72838,9620189667
60962,8702502251
52565,3980126381
54750,1009783745
56619,0630015135
47182,3223185539
29583,5147566795
20497,5418796539
27675,4314007759
38504,2935013175
36845,9106349945
23083,1956105232
14948,1302862167
23194,6474912167
36040,5607581735
35344,9780340195
21881,4531707764
16236,2142238617
29314,1593346596
46503,2973025441
48353,9201631546
34943,6182751656
20006,0910143852
8445,75204563141
-2577,20861029625
-17190,2929978371
-37092,5859494209
-52566,9597306252
-56368,6560897827
-58314,1978420317
-70653,4373288155
-87422,533498764
-89133,5942411423
-68686,8177115917
-41031,8023278713
-28001,2303447723
-34952,4872927666
-44463,0763392448
-42781,0758523941
-37888,1980045438
-43413,7892622948
-55867,5222883224
-57077,2559461594
-41031,2043983936
-24135,4896865487
-25618,9482588768
-42766,1677370071
-52592,7698421478
-42170,7499496937
-23020,5715571642
-15504,2578763962
-24854,6531367302
-34159,0942316055
-31554,5146965981
-29301,3394019008
-41142,1514062881
-60108,8501601219
-67870,5762577057
-57751,4084179401
-43920,3882959485
-46256,5526838303
-65192,6679010391
-81794,1118068695
-85029,1867661476
-81371,6960611939
-82172,5150947571
-89481,9299798012
-91296,0096583366
-81588,7128534317
-73890,1932687759
-82814,4206051826
-102889,14712286
-111674,853906155
-97829,1235928535
-75254,2468818426
-63983,9238882065
-67414,3981785774
-71296,4609131813
-65685,6040737629
-59331,8597790599
-65068,7889151573
-78571,6428222656
-81476,9677186012
-66272,8846902847
-46900,8198008537
-43430,7945613861
-57681,9184150696
-68192,0750188828
-60027,7229297161
-44263,9962561727
-39513,0576848984
-46427,4177246094
-50874,8240299225
-49871,8825099468
-54418,4317795038
-71763,1536211967
-95540,5057258606
-108408,207429409
-101610,18980813
-87802,4084943533
-85401,1500372887
-95107,842382431
-98335,3003072739
-84828,3715860844
-68520,3527739644
-66403,3647933006
-76362,1967144012
-80332,5810103416
-67728,6775214672
-50010,0141282082
-45731,8485622406
-55864,1324977875
-62152,6815590858
-56115,2530486584
-54578,6770100594
-71446,8539338112
-94645,5278830528
-103721,865223885
-95508,7187862396
-87128,8735409379
-96658,9706587791
-120532,960255623
-136577,854856491
-133993,4274683
-122981,57392329
-117039,923515797
-119379,305692196
-120855,278981686
-115215,309905529
-111915,965453088
-123828,005690098
-145363,2838974
-153737,397755623
-137843,155391455
-111765,77759099
-98368,1316318512
-103777,494051933
-109854,518047333
-101996,813252687
-88767,1341150403
-85774,5298743248
-92518,0490307808
-91693,1103019714
-75606,0471060276
-59104,2770209312
-59932,5173735619
-76077,7520885468
-86581,1366677284
-77419,2638444901
-59052,622235477
-51316,9436421394
-56265,1073098183
-58112,6641616821
-49175,1631987095
-39717,3167515397
-43441,4359288216
-57379,1372795105
-61130,5911445618
-45583,4602649212
-26108,8393998742
-21338,2882852554
-30634,9804363251
-36414,4968342781
-28916,0923230648
-17192,4544872642
-16022,1722307205
-26333,2531399727
-31070,2581663132
-19344,1429681778
-3384,30887520313
-2761,45781040192
-17055,7707862854
-24779,2571268082
-14032,0511078835
2456,55319166183
5940,75935459137
-4832,76212072372
-11355,5527234077
-816,279890060425
15776,8577747345
18774,2258343697
6135,63752555847
-7127,18599510193
-14788,6710658073
-21603,4453300238
-32169,287050724
-47567,2944216728
-57823,1959638596
-55451,914255619
-51047,0781150758
-57939,290977478
-72252,3243870735
-74757,9051113129
-56333,8405208588
-31899,8749911785
-22537,0717086792
-30995,2926292419
-38949,449368
-32580,0164942741
-20703,8485921025
-19984,7772006989
-30634,7398900986
-35013,9760885239
-23813,1709666252
-10170,1526539922
-10126,3014645576
-20975,68791008
-25559,7914271355
-15076,0751662254
770,929226994514
5054,67304039001
-5149,57455825806
-11919,3333859444
-3304,7653093338
9633,44107341766
10753,5946054459
1219,65260314941
-651,637978076935
13348,4656863213
28408,4926365614
27078,7405543327
11402,6188249588
-39,7847871780396
2856,78860521317
10844,1862932444
9630,9047665596
-2526,46622848511
-12378,3950271606
-10452,0004429817
-5139,33476424217
-10136,757461071
-23367,3895993233
-26739,3325438499
-10993,1096715927
10630,4821137786
17934,6467900276
7019,6615395546
-3892,13535022736
535,924741983414
12452,951613605
15503,0569887161
8035,74887228012
5723,95108413696
18645,1788749695
34590,5394461751
34487,6523118019
18170,2347826958
6971,51455497742
15883,5817079544
33370,607512027
37672,1800885201
26135,2683162689
17242,4022049904
22913,7457990646
33696,6131483018
32931,4767432213
20191,1406860352
14297,6196694374
26828,3492946625
45452,8261271119
50214,4116082191
39353,8518981934
30628,2493572235
35783,0149874687
46394,7573017776
47397,6592316628
37766,5555667877
34108,9296355247
46965,5785074234
63502,3393205106
63835,5373773575
47208,0573778152
34594,432612896
40909,493080616
55987,8090786338
59388,3914546967
46885,9377784729
36568,6922240257
42482,7557516098
55564,5909342766
58484,7795910835
49093,6958508492
44502,853269577
55614,7586598396
69663,1274624318
69085,1887779236
53979,6899766922
42952,1728420258
49684,0712676048
63656,176162228
64928,8696570396
51208,7202410698
42588,2330379486
52512,4299173355
67823,0857264102
69435,7265982628
56788,2844862938
47523,0463457108
55081,9813294411
70161,3390207887
72530,719440937
59694,1191477776
50924,4650354385
57778,7748951912
69031,2851177156
67887,9338994026
54741,1001167297
48617,9584031105
60172,1759986877
76021,5680941343
76532,6261472702
61188,5747551918
47807,5341467857
30094,7809319496
-20244,7379411906
-93809,3715181351
-154931,486254692
-188064,547065258
-202162,751961231
-220242,207567573
-258749,614312172
-305250,85334301
-326441,439531326
-304673,769149542
-255783,475060999
-210842,736506939
-186051,882009506
-174280,023536682
-167278,616930962
-169667,100543499
-187731,788277149
-212578,954708099
-221233,191949368
-202670,767881632
-172122,934570551
-154368,173779488
-156804,180332661
-161634,37106514
-152710,938463926
-137465,474078059
-132074,280552387
-138096,59992218
-139769,525040627
-126312,269924879
-110182,133289695
-111188,369566441
-127953,649889469
-137420,391029358
-124214,30382061
-98877,4662568569
-83527,3853883743
-84925,5243635178
-88451,1628417969
-82196,9086642265
-73752,2746869326
-77742,5141854286
-93004,3935785294
-99418,038649559
-84346,9738335609
-60031,5396658182
-47358,4975180626
-50843,3938374519
-54654,3883543015
-47022,2196629047
-37779,1893012524
-42140,6102848053
-56808,6648182869
-60957,8053269386
-43067,6571059227
-17107,5705180764
-5608,74281835556
-12480,4187746048
-19395,747469902
-12471,2206230164
-812,897692739964
-1271,8371348381
-13504,874712944
-20137,089495182
-10640,4975166321
5498,10356375575
9888,37421131134
138,616389274597
-4014,71928405762
9437,61150455475
27478,5948728845
31385,7676801682
19249,5066952705
8113,82281923294
12567,9394750595
25474,3528836099
29098,1021885872
20776,8312683105
17607,0831127167
31135,4279060364
49432,4709127918
53228,3606472015
40332,2267141342
28844,4246983528
34118,1786541939
48597,5035074875
53116,6472449303
43611,7252588272
36509,1248054504
43994,9320616722
57066,105369091
59213,1001434326
49488,9362616539
44996,5960698128
56582,0447697639
72560,3871736974
73404,6614174843
57034,3608446121
43026,1140618324
39985,2630348206
28535,224886857
-1357,36655902863
-33108,9900627136
-49039,8193721771
-48674,9229230881
-49621,7228162065
-69600,610657692
-103240,882653713
-123481,146580696
-111728,989723206
-79518,416024074
-53817,2559218407
-45645,593503952
-42205,5449123383
-33003,494345665
-26481,5776954591
-34984,2963433266
-54132,8501272202
-63215,7063980103
-50360,2900633812
-27002,0656554103
-13995,7220783234
-18976,3555774689
-26301,7511162758
-19760,1072635651
-6047,19516432285
-1706,75356340408
-8997,5089392662
-12111,2954592705
129,680403470993
16052,5859376192
16178,566699028
-295,767362594604
-13138,8019108772
-6171,99501800537
13011,6992645264
23138,2683682442
17099,6378951073
9943,36591053009
14251,4755058289
22719,5745642185
19981,0403308868
5022,96208047867
-2831,76401901245
10247,8433132172
32937,2690570951
44506,9394192696
39322,7652568817
33472,2054615021
39765,2503743172
45259,2296424508
33067,8626070023
10431,7159676552
-124,848759651184
10734,4593262672
27691,6269023865
29483,840086937
14271,5074133873
1467,89879274368
7320,5492477417
25537,830112949
36860,3559522629
32585,9559626579
25442,2701330185
29748,1917214394
39378,6618246511
39328,2175760269
28351,5633001328
22361,0860490799
32533,9137501717
49074,5700567067
54185,8689398766
43608,1265530586
33705,5042824745
39895,6239938736
53882,1785790846
57024,6066579819
47696,238345623
43027,4474291801
54005,6970176697
69868,1587489545
72388,0127139091
59133,9784846306
47951,7446269989
53788,1240134239
68939,9771301039
74435,5914635658
65462,2233829498
58253,6702480316
65304,9678859711
77558,2336891592
78202,7478260994
65153,6556968689
56086,5744719505
64336,2668395042
80097,2380771041
84273,5086627007
72419,0063986778
60470,5646944046
53773,2880368233
29570,1883214712
-18928,8476762772
-65169,0866651535
-87677,5847978592
-89615,4606013298
-93125,468053855
-117747,008720398
-156727,425376415
-181613,305138111
-172407,964862823
-138591,98490423
-106422,603067875
-90195,6963653564
-82262,4386720657
-73008,14067173
-68174,2233218551
-79165,0574321747
-101810,379813194
-112833,048710346
-97920,09724617
-71636,6633036733
-58139,4101643562
-63115,9103722572
-69622,8260149956
-62246,6641654968
-47634,1481126547
-43053,9556856155
-51207,9519352913
-54954,5200815201
-42339,4894113541
-24991,4532068968
-22420,9668183327
-36904,0178360939
-48970,4818029404
-41633,3707523346
-21505,537740171
-8818,73076915741
-12195,1738109589
-17952,7940244675
-12629,6875357628
-3832,38162058592
-6779,6075296402
-21611,137093544
-30321,4147787094
-19432,3939862251
2413,9562523067
15632,0797376633
13326,4692034721
9573,98576784134
15181,7343025208
18163,0417607427
4398,07279062271
-19051,5173268318
-30564,984360218
-19234,4229393005
266,512869700789
4896,14927101135
-9135,29461240768
-32072,179464817
-62356,0884490013
-95497,196929533
-122773,422282696
-146741,067025661
-166728,903922558
-179256,411525726
-193020,737964258
-216420,33775568
-240699,350066185
-242904,532543182
-211455,861266613
-164820,07283264
-133147,131556034
-127874,590157986
-134745,972267628
-136395,330076694
-134915,674719553
-141294,440525055
-152686,347415924
-152894,901835918
-133641,783279419
-107431,640581429
-95507,5034403801
-102616,849390507
-109924,519781113
-100936,40651989
-82203,1322278678
-72663,5156569481
-78035,3885793686
-82413,4525580406
-73041,4972784519
-59141,7429558337
-58032,858394146
-70890,8598246574
-77475,2274079323
-62792,6487150192
-37618,1791450679
-23461,8723278046
-28335,7355208397
-38103,0564584732
-36318,5419025421
-30339,126018852
-38345,9339694977
-57055,4610958099
-63991,9304571152
-48648,8064498901
-26686,5117841959
-21873,6032075882
-39110,3383364677
-60190,8074417114
-67582,2310938835
-62129,3492696881
-56979,5504031181
-59253,0919456482
-60321,9286251068
-52008,4434981346
-42588,1587496549
-46501,1387734413
-62236,666205883
-69188,2298088074
-53846,511636734
-28532,3857917041
-17215,8967757225
-26297,0089592934
-37226,0684199333
-33122,2566008568
-18795,9792664498
-11536,8116307259
-18133,71048069
-23804,6370601654
-13157,7188339233
5519,25485573709
11079,786772728
-288,710942745209
-9749,14934539795
-2711,35565805435
14058,1251400784
23041,3918876648
16964,4082655907
9395,0381231308
15333,4871230125
28449,648337312
30755,6525616646
19180,3351922035
12328,2537903786
24029,2420272827
43276,1341285855
50058,9344673157
40571,5212111473
31813,1486859322
38665,4395947456
52779,0988977626
55629,4734244347
44877,2049436569
37869,3892903328
48318,5115056038
67535,0794154406
75842,3825454712
68319,5650572777
58149,9514942169
48751,4789748192
31827,8257504106
8255,47582149506
-16376,4844107628
-34053,7032833099
-39808,0046648979
-43384,7918405533
-57785,9492645264
-79777,461751461
-87595,3825640678
-66415,4722080231
-29944,8678244501
-5650,14124965668
-4897,33739089966
-12644,3532252312
-11230,6401777267
-5116,86239105463
-8529,15608024597
-21334,7043805122
-27378,3543386459
-14535,4564466476
8027,77187508345
18532,3261399269
10042,9013409615
326,421581268311
6224,32125520706
21847,6781598888
28959,046587944
22311,5314478874
17021,6954240799
24735,6502857208
36516,6065255068
36393,1314239502
23625,4037804604
16689,6442928314
29457,9321289063
52118,7458411194
63975,7016568184
58053,7608647346
48594,5260591507
49853,3592810631
51690,0794492811
35583,9353647232
8027,44778823853
-6569,74803209305
1697,8567700386
16788,4328414202
14832,9899334908
-7873,73023462296
-28864,4388742447
-27306,1921749115
-7742,86221995763
9593,28149747849
14651,3989605904
17491,3106946945
28150,3168716431
39560,9954145625
37678,6803712845
22295,3251233101
12097,1847171783
20441,4295344353
37804,3504774868
45701,0848565102
37923,2044930458
28487,1986813545
33105,3922162056
46020,3932369389
50151,2550458908
42417,1626806259
37694,3765254021
47730,6996879578
63693,9026774392
66811,1387996674
53426,0875883102
41597,8076872826
47273,0736722946
64070,3902638406
74014,4664759636
70153,2848377228
64620,5014352798
70050,9297590256
79517,0963369012
76983,021241188
61259,5194482803
50181,2479639053
57408,4111909866
74493,0865057111
82701,6016421318
76029,6254549026
69210,5397162437
77338,2613506317
92388,8392303884
94072,5204610825
79507,6112146378
68792,585978508
78074,6259784698
97356,3258597851
104159,640838146
92853,8520636559
69783,7468194962
32239,0164346695
-13135,5745553374
-50063,5960173607
-79304,8146071434
-103701,776805401
-120217,32720089
-135796,540229082
-159758,608566046
-185356,845402718
-189504,666235447
-159098,950465679
-110594,724586099
-74425,9656200409
-66441,3570489883
-74402,6069459915
-78843,6284813881
-79938,5576050878
-89043,9099452496
-104685,221036434
-108908,875688076
-90779,7784204483
-62879,8496842831
-48194,6604948044
-53748,0666546822
-61677,3056001663
-55373,1122050285
-40745,1571768932
-34079,4145641327
-40305,7703166008
-46227,4722161293
-39543,8849797249
-27304,9064673334
-26621,1343379021
-40232,2289009094
-47440,1205911636
-31850,5608563423
-5789,02771746367
8149,03676557541
3416,5681848526
-6429,64414215088
-6378,42804574966
-337,810970112681
-2455,1673989296
-13526,7572126389
-16708,1606268883
216,82330083847
25938,3362007849
36936,3167500496
25588,4906644821
5751,97710180283
-13061,6744947433
-31651,6165345479
-50787,7976388931
-70872,6804661751
-83750,4941573143
-82479,6301317215
-78294,8175276965
-86677,1379380226
-106387,688324928
-115806,116131783
-97592,7642655373
-63209,6679523811
-38918,9108233452
-36544,8280539513
-44203,7039895058
-45417,9710717201
-41418,8305396438
-44580,8636617661
-55148,1328668594
-57449,1826686859
-42520,1953530312
-21323,1337916143
-12784,4838089943
-22873,2372722626
-33743,9940805435
-27027,2820715904
-9199,61184798926
749,259685993195
-3543,23267650604
-8777,36478567123
-2759,57465457916
7843,28571623564
8213,14676189423
-4670,71183681488
-14055,9606981277
-3643,52577066422
18093,8446106017
29522,9804000854
23827,5380830765
16515,4486699104
22423,572467804
33918,6677484214
34312,3877921104
22379,1212043762
15213,8604340553
26589,3794531822
47931,315407902
58405,6068997383
50872,5554404259
39629,0582942963
25160,3876399994
-15497,4445996284
-79221,3847985268
-136248,796027184
-169115,952350616
-182265,234156609
-196302,691859782
-227894,80034399
-269545,843366623
-292160,113751888
-273161,872599125
-223255,239773214
-174852,638825417
-149151,589461327
-141067,595095634
-136032,519211292
-134433,170182154
-146226,023407459
-167578,136118889
-176706,399986744
-159244,544603348
-128813,930012345
-111272,636454105
-115880,426140785
-126393,77291441
-121741,187017918
-102432,175510824
-88587,7498965263
-89963,5324516296
-91694,935385704
-80867,0559005737
-66201,8839543164
-64599,0663056374
-78534,8273992538
-87286,9220285416
-72252,0669393539
-43872,1064080745
-26865,8671312332
-29759,8828549385
-38593,6727395058
-38504,2253494263
-37296,5940639228
-58616,7942943573
-100338,795419693
-126511,75726366
-118652,624064922
-98351,8225526735
-97049,5965971947
-121739,251779079
-155100,546139717
-188253,784895897
-219132,812377796
-239085,467524052
-249636,355612278
-253840,729728699
-250636,587436199
-251044,607229482
-268179,368490219
-295916,935538292
-307928,037269592
-284842,825054646
-239255,182601184
-201618,260345936
-187917,398942947
-189340,068183899
-189900,142866611
-187719,612136558
-191600,752909184
-200403,280433655
-198315,479115486
-175172,95414114
-143017,128262728
-126414,607675076
-134853,751235485
-149235,099135876
-147790,794177055
-131689,460841462
-115670,342565536
-108378,626615047
-103767,354409218
-93740,7055583
-83604,9820585698
-85451,8594512939
-99642,5920372009
-106816,854747772
-90743,3225355148
-61499,9818369225
-41439,5478291512
-39205,4177289009
-42663,8689112663
-37003,495704174
-25192,3685946614
-22724,6943788528
-33140,6004853249
-38595,3589034081
-23276,1682372093
4803,51485815644
22727,2351999283
19892,1313843727
11296,9899520874
6941,86908245087
-7197,82130992413
-35678,2822618484
-63572,2487473488
-76134,3835945129
-70973,3066329956
-64124,3445869684
-74190,7975568771
-100299,78417635
-118592,231747627
-106540,217022419
-71482,3131042123
-40067,9283766747
-28350,3923768997
-28866,7543120384
-26382,783261776
-21975,8365127444
-27659,7951898575
-42396,5553407669
-46862,1724476814
-27670,6337385178
2272,15287065506
17845,6611435413
10559,306573391
-3165,19475269318
-2907,60985422134
12627,7739433348
26862,7255630493
28771,9084625244
28075,9714546204
36934,6343550682
49369,9645292461
49735,5360536575
35910,0478858948
28189,1170916557
43608,0014104843
71483,6338644326
87355,7520289421
81865,6170282364
70116,2070808411
59211,6015014648
24061,9905583262
-42075,6498479843
-103254,245542049
-134923,714465141
-143651,444293499
-150705,385313809
-176713,340698242
-218849,169230938
-248750,313428402
-242228,584364414
-203537,130942717
-157617,800644398
-125773,739980221
-107404,948476791
-92477,7941603661
-84853,013014663
-94734,0518422127
-119121,852022648
-136718,651348591
-126632,287724495
-94789,7479371578
-67318,6944012642
-59184,8626003265
-59901,4554314613
-53359,3717370033
-41414,3545095325
-37806,1418433189
-44467,6386890411
-44843,4943370819
-27496,3708486557
-3588,44896185398
5095,31423330307
-8209,23880672455
-23639,9347853661
-20381,4454917908
-488,114595383406
20586,3332591057
31584,2107014656
35968,1358904839
42385,3823437691
47281,0573418364
39527,842581749
20179,1186423302
8711,70038986206
21537,3506588936
50373,5868754014
71409,3616294861
73543,0289549828
70153,6294341087
76296,5692987442
86452,7720196843
86282,3318805695
74367,0614209175
67017,655974865
79609,7753119469
105321,071802795
122849,571137905
121949,473884106
111287,009052277
94603,600153923
68467,4599920511
39293,9610557556
12972,8895359039
-3938,4954457283
-7124,81633853912
-8143,53587967157
-21383,7811775208
-44980,186770916
-56149,15356493
-35698,9313321114
5048,25862312317
37329,3334226608
45877,1254863739
40606,7763338089
38400,7982587814
39813,9573369622
33600,2611572742
19606,7049264908
15229,9524626732
32839,2995414734
62193,1789056659
80542,3265349865
77279,6763157845
67635,3301444054
69871,2102427483
81708,3801707625
89292,2258489132
86293,9865570068
83739,6452741623
93331,5558114052
107666,862951756
110012,836525917
96200,2644758224
84629,6329455376
94772,912317276
119059,878617525
133397,992426872
127071,12807703
113518,794095039
111275,207230568
117587,172708273
112862,241500854
94484,9713001251
85115,1384634972
98337,7364654541
120261,878149807
126303,24606657
107993,90733099
84377,871026516
67030,7200927734
41483,8613218069
5284,90575480461
-25728,0159301758
-40293,3335971832
-39978,9822411537
-41867,5633179545
-62868,362405777
-98946,6080551147
-124069,221429348
-115298,260356903
-80349,2507820725
-47988,0910072327
-35427,8521533012
-35140,117960453
-33226,9091124535
-31036,9735023081
-40605,4766783714
-60878,1191368103
-70543,9310250282
-54658,4277963638
-24524,3152394146
-5142,65242147446
-9665,89646625519
-23590,33162117
-24810,9277844429
-13087,8052387014
-3083,31150007248
-1649,57011651993
876,311064243317
13995,011288166
28093,6582145765
25943,6842079163
5248,07947540283
-12966,4239020348
-6005,5136179924
19850,8303230107
38613,1353106499
37492,6721634865
28485,4463119507
28108,1548361778
34939,1945407391
35487,2512407303
24650,4482483864
16176,9918556213
26119,1671862602
48515,4971219003
62725,0886478424
59778,3646440506
51524,0802297592
53605,7734980583
64959,2692472339
69651,8432393074
60399,7359318733
53679,4494075775
67157,5362706184
91631,140658021
103495,737096071
94579,2064805031
80981,9067387581
82696,9932456017
97221,9879251719
104836,354579687
97904,9370098114
89887,5805020332
93614,712474823
103969,32995218
105813,848347187
95515,2097096443
89601,7668433189
102782,224165916
126602,865157604
138543,104529619
128746,590037823
113725,509207726
112708,231838703
122482,197183251
127427,843459606
121333,841292381
116184,634755611
124734,87206459
139389,38821578
141816,515883684
126689,257197857
111816,198235989
117396,090322971
136946,800812244
147458,916420937
141130,221800327
132561,901526451
137100,651263714
149760,437426686
153171,63429904
144082,196960926
139451,771744728
152008,928145885
171885,371217608
177531,537359953
161240,143091202
133941,21754837
95258,8080053329
42220,1848025322
-5929,30719447136
-38780,6894550323
-62070,3327112198
-80745,7389588356
-103508,792798638
-138356,089437723
-175684,803144455
-187120,039763451
-156887,175798416
-102814,980573893
-58178,2880949974
-41764,2474560738
-44222,4302883148
-47186,6055798531
-48431,5200052261
-57520,3397271633
-73878,6230597496
-79606,3845434189
-62268,4281392097
-32397,9570250809
-12375,6392273903
-14477,5450310707
-25010,9193673134
-22881,8274884224
-8442,56579375267
3610,16806960106
4957,65570926666
2382,12155485153
6387,34892177582
13578,5713577569
11373,6107807159
-2168,54765462875
-10245,6502375603
3248,1367855072
31169,8646813333
50614,1702947617
49617,0734529495
41179,9914193153
42997,8985824585
52021,6299407184
51584,3094832897
36483,7613525391
25131,1315846443
36691,2067389488
64184,353577435
84230,3831927776
84034,917725563
73813,9585127831
62760,6087327003
44656,5291282535
20045,9232518673
-2964,49650192261
-15732,7427124977
-12352,7081689835
-3067,1107634902
-6394,32105350494
-25862,5791368484
-41909,8473711014
-32954,2469797134
-3753,33355939388
20612,7908704281
25915,4570317268
22198,2997908592
23943,8766212463
29038,4992741346
25196,906046629
10756,8256621361
2268,9242477417
13917,8057842255
37950,9669122696
53276,1869130135
48586,0961351395
35972,1609745026
33870,5769619942
43503,2144932747
51515,0815753937
48147,8668365479
42581,9974713326
50476,0740990639
67646,5163977742
74780,7490036488
64064,5803480148
50259,2910776138
53181,8572773933
72450,6124823689
88260,7740316391
88398,5062699318
82522,4149465561
84484,9575486183
92008,6811687946
90803,7064027786
76782,968360424
67193,9958376884
78572,5594882965
102971,014834881
116644,413590193
107715,151721478
90903,9005861282
78686,418856144
57143,0495917797
20085,235147953
-14642,310526371
-31138,7992348671
-30131,4805440903
-29203,8619971275
-46738,0786092281
-80851,2777285576
-106033,073856831
-97563,1993589401
-61181,3281514645
-25699,8734281063
-9706,77169370651
-6855,76061487198
-3991,12229251862
-1373,37177729607
-9106,81432843208
-27597,0602898598
-38341,25812006
-25666,7412214279
1101,09486967325
18547,1366043091
14596,5753917694
1812,30339765549
-41,0997304916382
10338,5237646699
19594,1548900604
18468,6066732407
13725,7771472931
17933,9243121147
28470,8160185218
30010,946757555
16793,0566215515
4621,78274154663
11721,9796857834
33722,5253909826
49428,5874350071
47528,1430459023
40435,3890576363
45258,8523716927
57657,3093367219
59613,558306694
46228,1229515076
34169,6365351677
41097,6814966202
62162,6542600989
77928,7650728226
78420,5878052711
73667,1352405548
77088,6075930595
79479,0949443579
63021,9869270325
33748,2016882896
14621,1738967896
18111,3827843666
32568,0858479738
33478,3774297237
12554,3546924591
-12499,5802440643
-21335,6944813728
-11986,8562994003
511,316474199295
2171,58386898041
-1830,10855197906
549,426999092102
5732,83059418201
-625,992488622665
-20023,9482564926
-32002,4198670387
-19449,2544426918
8816,52139604092
29083,3482558727
27979,3660068512
17316,4774861336
15677,1840415001
22938,064498961
26710,6081068516
21621,9979748726
19644,2941117287
33682,7371616364
53385,4534314871
57845,8218827248
41900,1646294594
23401,1806960106
25537,4419131279
46943,303357482
63077,414452076
59947,7087931633
50589,0102009773
52681,9344229698
63543,4672151804
66075,9608478546
53523,9738402367
42955,169064045
53715,2447547913
78711,7776180506
93361,9173748493
85123,6435470581
67694,7963852882
52597,5355215073
24683,4756242037
-19925,7071928978
-60765,4881238937
-84262,700407505
-89879,7272825241
-90819,1731973886
-106962,435277939
-140257,854426861
-167358,413251877
-162313,20687151
-125864,726328492
-85675,3865561485
-64897,5925507545
-59537,8545684814
-55147,4358153343
-52432,3650123477
-63058,9376957417
-86153,1871905327
-99949,9887046814
-87019,0973639488
-58040,6739283204
-38358,6617872715
-40130,6721639633
-50340,3598227501
-49367,6759662628
-38335,9064313769
-31798,8934531212
-34321,1100063324
-35718,0755000114
-25192,4036884308
-9094,19035995007
-5565,17167186737
-20198,7858724594
-36630,9263048172
-35160,5464019775
-15879,4799588919
2398,53655958176
5441,94535923004
639,383951187134
2443,63543653488
8721,15997314453
6133,74481534958
-7834,6856303215
-17261,3700809479
-6580,18241262436
17569,6373033524
33917,250287056
31855,4120426178
23235,8235530853
25099,8704714775
35301,4826577902
37610,7445533276
26480,2529144287
16840,9623303413
26240,5065326691
50608,9047111273
67909,5739789009
65342,6654524803
53716,2612752914
50918,9252715111
59915,0041841269
68098,8697333336
65072,0413489342
59667,3489995003
65754,9367604256
78663,4865809679
81997,3640727997
68918,6225967407
55069,5571017265
60684,8892455101
81279,3380588293
95866,7197816372
92922,7191033363
81367,5913996696
78521,8745455742
85351,5383535624
87809,5399167538
80420,9464883804
75369,934525013
86653,8579111099
108528,702714562
119134,309305191
107352,250439167
87989,1160912514
83643,9176673889
97163,9437547922
109923,546508074
108029,140292168
102020,61420393
107723,818984985
120530,613788366
123073,149116755
109322,664248943
96400,5490245819
103465,627084255
124690,751497865
137419,779691219
128290,705962658
109971,889159679
99554,4305319786
84494,3698738813
50646,3624331951
13448,0389299393
-8487,14361286163
-12573,5135154724
-12080,4944261312
-27255,2529201508
-61519,6165232658
-92077,3662791252
-93116,5318455696
-64481,3052359819
-30190,3781023026
-10754,1266961098
-3144,06373977661
4796,01616477966
11512,6790064573
5558,0309510231
-14955,2264275551
-31036,7575221062
-22741,7507553101
3991,11106878519
24969,0515959263
24227,3502993584
11506,1540746689
7013,81483125687
13887,4127938151
19847,5399138927
16875,0653457642
14597,2239527702
26706,7680335045
45433,2477732301
49740,2451457977
33117,0800080299
13752,8369364738
16009,4809260368
39573,9516795278
60328,5287845135
61077,3305840492
50409,203669548
47518,4164018631
53886,3077047467
54588,1859385967
43208,0752897263
33086,3616623878
40864,3317403793
63239,275727272
79523,9380755425
77164,0015296936
67794,8697161675
69136,9464221001
78791,6519274712
81401,5965328217
71333,2247610092
61027,1242337227
67302,9775357246
88269,4067286253
103088,510720015
97916,8884477615
83375,9001617432
73344,9572234154
65023,2113662958
52448,3067212105
35588,4384932518
21298,6590938568
16959,0372109413
17950,963178277
10986,6987063885
-9057,81103801727
-24931,6170101166
-15321,8849048615
14382,6523182392
39645,2097637653
44198,5484204292
34411,7515587807
28159,9498438835
29405,8301727772
27621,8881559372
18584,8127202988
14722,6385765076
28840,2705173492
51669,9331179857
60983,9059956074
47968,8811964989
28846,6454787254
27825,0272502899
46109,3833250999
61059,0716753006
58706,4068317413
50684,3620824814
53013,0686101913
63029,681437254
64800,0616338253
51754,7360777855
40554,8817591667
50305,4768528938
74558,378057003
90022,2137010098
83338,9501004219
66804,5223641396
56982,0720648766
37068,3181738853
-12113,2448391914
-67264,7879776955
-97086,0934844017
-100862,532067299
-102535,857044697
-125216,001820564
-169482,496593475
-208747,145588398
-211184,154670715
-175965,305790067
-132028,159311533
-104616,427881718
-93936,6104388237
-86288,6538820267
-81331,1361758113
-91413,5504031181
-115208,975578308
-130792,836881638
-120750,011049747
-93392,8847961426
-73240,7391836643
-74335,3927054405
-84261,5459909439
-83269,7856526375
-69496,0764381886
-55456,5992333889
-52574,4487147331
-55032,153567791
-47103,3711886406
-32227,7344660163
-29850,1209652424
-45726,9199314117
-62441,4234185219
-59352,0383439064
-36337,9071403146
-13467,0997695923
-8237,41385698318
-15840,7142753601
-19044,1563949585
-14140,9110813737
-13668,1633594036
-25451,1635279655
-37162,6905999184
-30499,0983190536
-7530,25721108913
11016,7534682751
10788,4537553787
2074,86348152161
3806,63318777084
14989,7262473106
19685,0831816196
10005,7414598465
-1179,31603002548
5631,63862371445
27947,1219137907
42896,6337573528
37783,1537432671
21545,0887794495
906,255782604218
-23461,529296875
-45388,1411340237
-65349,3979206085
-83657,9047441483
-94020,6137299538
-100467,335602999
-114935,480019808
-137157,521017551
-146401,391374111
-124198,464672565
-80481,5057924986
-45475,6959173679
-39107,2399148941
-51712,8750762939
-61911,2926874161
-63253,1139485836
-63503,1002776623
-69126,1488285065
-70749,3203306198
-54490,1402659416
-27750,4096330404
-12803,4921448231
-20207,4381985664
-36029,953956604
-36469,0753250122
-18274,697106719
-2639,98574972153
-4827,6123380661
-14114,861354351
-13288,2024078369
-3646,19166374207
759,034498691559
-7171,92676830292
-14809,2041449547
-4050,28204107285
21161,0291239023
38478,4528491497
33591,6491518021
17408,7527112961
6003,29075574875
-13443,5563246012
-53832,2677242756
-95205,8283839226
-116690,122377396
-117112,285393715
-112508,673459768
-126126,605684996
-161471,179274082
-193738,386919975
-195352,82224226
-165170,30112946
-127447,627072573
-104152,025621891
-93836,8063240051
-84277,9128031731
-75158,7562505007
-77972,9483504295
-97380,2083644867
-114748,392197609
-108039,710020065
-82603,7716827393
-61383,6736903191
-59063,269961834
-67219,8292369843
-65822,2534856796
-52557,8239276409
-42323,658288002
-43329,121635437
-45193,3274698257
-33816,5708274841
-15020,6182473898
-9227,53449583054
-24537,4354014397
-44150,7914419174
-44938,8193259239
-24588,1341507435
-2509,59372758865
4420,96664953232
824,802505016327
1258,36526107788
7026,33614754677
6629,65350675583
-5594,5305814743
-16682,5791649818
-8804,3123664856
15216,2181264162
34795,1958498955
35833,8557972908
27517,0057077408
28398,0313405991
38497,7135080099
42384,979377985
32698,9986763
21570,0496416092
26433,0436844826
46833,5767352581
63344,7884092331
61222,686132431
49802,2677946091
35230,4578504562
5252,41303813457
-36576,7875256538
-74141,0052509308
-98987,3123254776
-111147,588558197
-121560,568106174
-142632,112847805
-173846,650947094
-193684,848122597
-177586,643342018
-131073,193444729
-85758,2252020836
-65704,4229440689
-66767,7928814888
-70556,7413697243
-71895,4796515703
-78862,5345964432
-93327,979739666
-101320,976020813
-86931,0149044991
-56227,5407178402
-34371,2044456005
-35804,5878181458
-48222,8676066399
-49736,2632632256
-34618,1894735098
-18192,4833555222
-16505,3142786026
-23041,9329929352
-19949,672586441
-7713,58279275894
-2648,61140227318
-12356,5932440758
-22162,3694939613
-11174,4830670357
18200,0722560883
42415,2713296413
43577,5950598717
29133,3428425789
19826,6900234222
9091,50554716587
-25244,6194176674
-71587,3381114006
-99242,2355971336
-98074,9676361084
-85697,4364739656
-89842,6815290451
-118377,724957466
-151314,524336815
-164657,6405406
-152274,607331753
-128914,123191357
-114395,140282631
-109024,864458561
-100812,931661606
-92215,8926048279
-96582,1506931782
-116137,263307571
-131608,829416752
-121218,505176544
-89713,3839563131
-62229,6230683327
-56736,7424488068
-66142,3112254143
-68722,3561139107
-59454,4507895708
-51755,8422679901
-52815,2751421928
-53311,4682950974
-40559,3410458565
-19283,0465128422
-9261,55658125877
-19946,5485653877
-36333,3974089622
-36623,8486447334
-18248,3691282272
846,538012742996
4078,42838191986
-3076,15963315964
-3216,27236127853
5935,82475662231
9996,74213838577
544,15788602829
-8944,99094438553
568,962650299072
26354,4102790356
47200,186444521
49394,5949134827
42327,0171504021
43501,6703052521
53767,7886804342
58788,7531633377
49782,2990789413
38185,1940970421
43108,7591490746
63919,7317284346
80441,0837390423
78770,0369825363
68420,9881129265
55290,719933033
23245,0252645016
-26455,2360715866
-71489,1433653831
-99728,2292046547
-112839,0373559
-123793,352034569
-148236,598513842
-184466,004692554
-206332,171576977
-189922,223545551
-142737,168298483
-95476,0386168957
-72363,4676346779
-70515,3183636665
-72028,8311829567
-71662,0403054953
-76819,6914412975
-89436,1095719337
-96853,663248539
-83809,7069225311
-55632,6350493431
-35719,8542668819
-37891,1044616699
-49963,1664581299
-48723,0647816658
-29740,0871926546
-12832,1409163475
-13906,5237836838
-22647,7909460068
-20492,4842619896
-7977,22368323803
-769,5075070858
-8289,86849212646
-17449,765021801
-6471,92706489563
22488,0100080967
45922,6192538738
47585,4859938622
35804,0232934952
27035,4658718109
9089,66398251057
-34087,1010491848
-82350,9451336861
-110084,285211563
-113472,796649456
-107968,613546729
-116866,494927168
-147136,728082657
-179278,87384367
-188456,043560028
-170375,725663424
-142203,158555031
-122915,075343609
-114104,361814022
-106757,595741272
-101512,012582898
-108752,176543474
-128505,579115391
-140868,082551479
-128332,175125122
-98123,9651043415
-72462,9429199696
-66292,8469810486
-72737,09071064
-72364,8230638504
-61454,0442699194
-53177,5411705971
-53437,2151885033
-51538,8176927567
-36137,9744691849
-14849,7472814322
-7619,61694765091
-22599,6983056068
-42736,1545205116
-42630,3474273682
-19802,0551068783
4018,22032856941
10392,2045769691
4777,39605569839
5263,76369428635
14604,6710416079
18207,1455340385
7951,61936998367
-2805,54573583603
5342,49229383469
31138,3583828211
52903,9346263409
54392,4051413536
45802,3213891983
47640,4216890335
60249,3270918131
68081,0227935314
61925,024438858
52577,8757185936
59185,7126073837
81846,3491616249
100256,859358788
98925,9998340607
85707,1897573471
67104,2965974808
36721,1116399765
2181,21734499931
-25852,7235541344
-45741,4174976349
-56609,9075636864
-64779,6674473286
-82289,9260907173
-110210,319222927
-127238,714044094
-110857,253454685
-68621,771094799
-29555,8581945896
-14260,7953643799
-18456,7290296555
-22577,6148443222
-20550,8462411165
-23077,2030396461
-34257,4186291695
-40130,8931703568
-24593,2698755264
4532,40686941147
22271,5557258129
16569,005543232
1755,22888994217
2231,55544805527
20837,522785306
36458,359495163
34673,5176033974
25919,50045681
27780,9122209549
40131,8538802862
47126,2521994114
39492,9570031166
31168,2836022377
42485,6433186531
70071,6316331625
90155,8177642822
86811,1135363579
71050,2544341087
56034,3689470291
25963,0688434839
-25999,3137309551
-75861,667883873
-105328,723811626
-113005,672219753
-113245,125710726
-127791,301508665
-161512,310940742
-192818,072822094
-191485,349871635
-153982,146948934
-108491,6812222
-80520,5399198532
-69956,5170593262
-64117,1165246964
-60213,1647635698
-66328,7353134155
-83742,754462719
-95280,2658390999
-82309,765349865
-51194,1759445667
-27737,0350551605
-27703,2497215271
-40762,0690989494
-44740,1995749474
-31522,6855392456
-13628,5550303459
-7274,49155855179
-11133,6037564278
-10490,6853079796
-1663,35125100613
3051,40539956093
-5951,57025527954
-17549,6943807602
-11232,4451160431
13630,6224505901
36936,1983103752
41892,6607613564
35310,6719737053
37135,062189579
48936,9827805758
