0
0
0
0
0
0
0
0
0
0
0
0
0
0
0
0
0
0
0
0
0
0
0
0
0
0
0
0
0
0
0
0
0
0
0
0
0
0
0
0
0
0
0
0
0
0
0
0
0
0
0
0
0
0
0
0
0
0
0
0
0
0
0
0
0
0
0
0
0
0
0
0
0
0
0
0
0
0
0
0
0
0
0
0
0
0
0
0
0
0
0
0
0
0
0
0
0
0
0
0
0
0
0
0
0
0
0
0
0
0
0
0
0
0
0
0
0
0
0
0
0
0
0
0
0
0
0
0
0
0
0
0
0
0
0
0
0
0
0
0
0
0
0
0
0
0
0
0
0
0
0
0
0
0
0
0
0
0
0
0
0
0
0
0
0
0
0
0
0
0
0
0
0
0
0
0
0
0
0
0
0
0
0
0
0
0
0
0
0
0
0
0
0
0
0
0
0
0
0
0
0
0
0
0
0
0
0
0
0
0
0
0
0
0
0
0
0
0
0
0
0
0
0
0
0
0
0
0
0
0
0
0
0
0
0
0
0
0
0
0
0
0
0
0
0
0
0
0
0
0
0
0
0
0
0
0
0
0
0
0
0
0
0
0
0
0
0
0
0
0
0
0
0
0
0
0
0
0
0
0
0
0
0
0
0
0
0
0
0
0
0
0
0
0
0
0
0
0
0
0
0
0
0
0
0
0
0
0
0
0
0
0
0
0
0
0
0
0
0
0
0
0
0
0
0
0
0
0
0
0
0
0
0
0
0
0
0
0
0
0
0
0
0
0
0
0
0
0
0
0
0
0
0
0
0
0
0
0
0
0
0
0
0
0
0
0
0
0
0
0
0
0
0
0
0
0
0
0
0
0
0
0
0
0
0
0
0
0
0
0
0
0
0
0
0
0
0
0
0
0
0
0
0
0
0
0
0
0
0
0
0
0
0
0
0
0
0
0
0
0
0
0
0
0
0
0
0
0
0
0
0
0
0
0
0
0
0
0
0
0
0
0
0
0
0
0
0
0
0
0
0
0
0
0
0
0
0
0
0
0
0
0
0
0
0
0
0
0
0
0
0
0
0
0
0
0
0
0
0
0
0
0
0
0
0
0
0
0
0
0
0
0
0
0
0
0
0
0
0
0
0
0
0
0
0
0
0
0
0
0
0
0
0
0
0
0
0
0
0
0
0
0
0
0
0
0
0
0
0
0
0
0
0
0
0
0
0
0
0
0
0
0
0
0
0
0
0
0
0
0
0
0
0
0
0
0
0
0
0
0
0
0
0
0
0
0
0
0
0
0
0
0
0
0
0
0
0
0
0
0
0
0
0
0
0
0
0
0
0
0
0
0
0
0
0
0
0
0
0
0
0
0
0
0
0
0
0
0
0
0
0
0
0
0
0
0
0
0
0
0
0
0
0
0
0
0
0
0
0
0
0
0
0
0
0
0
0
0
0
0
0
0
0
0
0
0
0
0
0
0
0
0
0
0
0
0
0
0
0
0
0
0
0
0
0
0
0
0
0
0
0
0
0
0
0
0
0
0
0
0
0
0
0
0
0
0
0
0
0
0
0
0
0
0
0
0
0
0
0
0
0
0
0
0
0
0
0
0
0
0
0
0
0
0
0
0
0
0
0
0
0
0
0
0
0
0
0
0
0
0
0
0
0
0
0
0
0
0
0
0
0
0
0
0
0
0
0
0
0
0
0
0
0
0
0
0
0
0
0
0
0
0
0
0
0
0
0
0
0
0
0
0
0
0
0
0
0
0
0
0
0
0
0
0
0
0
0
0
0
0
0
0
0
0
0
0
0
0
0
0
0
0
0
0
0
0
0
0
0
0
0
0
0
0
0
0
0
0
0
0
0
0
0
0
0
0
0
0
0
0
0
0
0
0
0
0
0
0
0
0
0
0
0
0
0
0
0
0
0
0
0
0
0
0
0
0
0
0
0
0
0
0
0
0
0
0
0
0
0
0
0
0
0
0
0
0
0
0
0
0
0
0
0
0
0
0
0
0
0
0
0
0
0
0
0
0
0
0
0
0
0
0
0
0
0
0
0
0
0
0
0
0
0
0
0
0
0
0
0
0
0
0
0
0
0
0
0
0
0
0
0
0
0
0
0
0
0
0
0
0
0
0
0
0
0
0
0
0
0
0
0
0
0
0
0
0
0
0
0
0
0
0
0
0
0
0
0
0
0
0
0
0
0
0
0
0
0
0
0
0
0
0
0
0
0
0
0
0
0
0
0
0
0
0
0
0
0
0
0
0
0
0
0
0
0
0
0
0
0
0
0
0
0
0
0
0
0
0
0
0
0
0
0
0
0
0
0
0
0
0
0
0
0
0
0
0
0
0
0
0
0
0
0
0
0
0
0
0
0
0
0
0
0
0
0
0
0
0
0
0
0
0
0
0
0
0
0
0
0
0
0
0
0
0
0
0
0
0
0
0
0
0
0
0
0
0
0
0
0
0
0
0
0
0
0
0
0
0
0
0
0
0
0
0
0
0
0
0
0
0
0
0
0
0
0
0
0
0
0
0
0
0
0
0
0
0
0
0
0
0
0
0
0
0
0
0
0
0
0
0
0
0
0
0
0
0
0
0
0
0
0
0
0
0
0
0
0
0
0
0
0
0
0
0
0
0
0
0
0
0
0
0
0
0
0
0
0
0
0
0
0
0
0
0
0
0
0
0
0
0
0
0
0
0
0
0
0
0
0
0
0
0
0
0
0
0
0
0
0
0
0
0
0
0
0
0
0
0
0
0
0
0
0
0
0
0
0
0
0
0
0
0
0
0
0
0
0
0
0
0
0
0
0
0
0
0
0
0
0
0
0
0
0
0
0
0
0
0
0
0
0
0
0
0
0
0
0
0
0
0
0
0
0
0
0
0
0
0
0
0
0
0
0
0
0
0
0
0
0
0
0
0
0
0
0
0
0
0
0
0
0
0
0
0
0
0
0
0
0
0
0
0
0
0
0
0
0
0
0
0
0
0
0
0
0
0
0
0
0
0
0
0
0
0
0
0
0
0
0
0
0
0
0
0
0
0
0
0
0
0
0
0
0
0
0
0
0
0
0
0
0
0
0
0
0
0
0
0
0
0
0
0
0
0
0
0
0
0
0
0
0
0
0
0
0
0
0
0
0
0
0
0
0
0
0
0
0
0
0
0
0
0
0
0
0
0
0
0
0
0
0
0
0
0
0
0
0
0
0
0
0
0
0
0
0
0
0
0
0
0
0
0
0
0
0
0
0
0
0
0
0
0
0
0
0
0
0
0
0
0
0
0
0
0
0
0
0
0
0
0
0
0
0
0
0
0
0
0
0
0
0
0
0
0
0
0
0
0
0
0
0
0
0
0
0
0
0
0
0
0
0
0
0
0
0
0
0
0
0
0
533099,543985605
522542,422466904
521215,981346995
527666,376333654
536900,227284171
543537,598883703
544445,816574097
541775,596069992
538433,007713437
535003,834591448
534707,588229179
539983,73909169
546596,494328141
549901,409382075
550282,056969181
551399,886874765
557476,512853265
569604,617801994
584648,794763744
597852,149149835
606319,29245618
609132,288377583
603248,828116864
585019,24223043
556395,065971605
526031,115909904
506596,591314953
505900,134847529
517285,937976599
528076,374734946
535260,947342068
542680,32964462
548891,015589595
551399,190674543
554037,547979057
559852,403013408
565641,279933557
565811,774717256
558671,429544821
549440,124600649
543832,928574108
541518,444942147
541141,72514388
542616,519985139
543271,298635244
541482,217786908
538362,359668553
533919,711099133
528666,964977413
526422,573806405
532117,200684875
545849,268670782
562299,664475799
576897,714814782
588247,580459356
596095,557208478
600519,747582018
602317,786126524
602502,053901225
602507,126974583
604080,671323657
607269,9521873
610554,544080719
611888,317214727
608631,223208189
600409,042168856
592098,610815108
589213,162290901
591490,563444123
595294,661224484
597074,816948056
595608,912851036
594133,596064605
596290,344606876
602538,300268769
610231,12284869
615930,428000748
619592,655186594
623575,494058389
626576,967697889
623267,697219908
611342,34404254
596546,042155443
588261,514111787
588953,118669391
593500,703973651
597455,457407057
597900,387691498
591652,975038901
578647,077424247
562884,979802847
548291,285649836
537405,137932748
532558,133469045
533530,117873549
538366,469285011
547388,692129582
560227,896394968
573500,72051093
584298,719120473
593310,84490416
603301,536329634
613069,246886581
618322,776585892
616848,116802633
608402,312485635
594811,331492811
580838,869494319
570979,512055784
567492,180655904
571309,609252369
580404,796175465
589385,607041236
594436,892488323
596911,841236889
600397,805903524
606466,699651539
612849,572534502
616762,059729576
619468,69807899
623781,400850818
629851,597701766
634580,982469656
636862,764633909
640427,911101252
647544,560525566
657216,131854534
665863,461831808
669342,240316451
667415,994865239
662298,034204476
655773,440921962
648187,457038552
639817,957519514
632273,916574597
627924,956599236
628783,435467422
634299,149343908
641654,638289928
649320,433350176
656750,214347536
663548,118941568
671772,639855504
681919,175524935
689098,934472382
691404,634782672
692914,82222873
693985,757142603
691168,369827896
684917,483117037
679509,983417414
679447,906037554
684451,581247047
687059,113838032
682393,663801998
671855,635029256
657929,54763341
645843,781024873
638577,900120854
633316,043907984
630102,219939321
631723,603553921
637115,288146108
643916,594313618
651304,341184199
657850,306459486
662716,11557734
667201,037935138
673041,239587843
680163,735037688
685187,494394302
684321,559642047
678761,82765013
673557,808528505
672308,698518246
675925,648913264
681683,173309565
685066,347615957
685924,077221751
686231,159220009
686588,808698267
687134,156784326
685422,192505956
679248,585331008
669624,490236759
658369,271054566
648353,033207834
640106,943204641
630284,791769087
617134,723801643
602913,433770776
592210,906923503
588777,100924477
590307,223091245
588333,706144482
581132,017299771
576335,316868901
579266,440820694
587812,876747012
595398,866358995
600789,745310098
607775,051872611
616007,34038984
624274,268609181
632114,39070034
638920,655005157
647177,190822721
657498,944131374
667795,898344398
677362,50629106
684932,572315909
689708,37870273
693358,022813991
695583,448430419
694585,313736588
691224,252273619
687899,079394281
686926,933467776
689831,518311203
698901,827648483
713371,219791365
726445,665198699
734232,579840213
740413,940361112
750988,936319143
768480,678688824
790074,615223944
807890,207529634
813601,957295805
805800,314829558
790206,126373947
774852,591453701
765457,747098505
763944,18861039
768982,299243897
777560,356455237
787222,096151739
795953,265544713
804746,632401109
816897,569739461
831559,543668985
845647,020474166
858739,589480668
871408,784116849
883407,220593274
895336,163447727
909349,439930946
924616,692697823
936841,19695127
945274,852155685
952982,092305899
960715,479140341
965884,533514827
965124,203918427
957835,176489428
947853,758188948
938185,395290539
928323,74570781
917773,678860456
907282,653207213
899892,324476659
899924,11746332
906143,334105611
910970,097245067
908470,713493019
899638,491488487
891251,519873947
888063,244994104
886944,238231093
883663,812709093
877844,751021221
869751,525491565
860004,882278085
850014,887998909
839777,815298975
827373,921266556
813017,082323611
799805,424949795
788094,974615917
776256,13026458
768100,321993664
769842,348459601
781037,70900191
796687,270785272
811589,005234778
822212,53858602
831533,327138782
845809,556475222
864769,70215261
881132,968047742
889961,715481922
894920,605480313
902313,661013193
912344,123545289
919941,696029127
921980,475218713
920481,007860065
919955,840082526
921565,400558621
921682,085218553
920045,685503542
920437,814197928
924180,515256509
929336,040515751
932713,631752908
933806,803986728
935180,69503206
937766,393624008
940671,622167155
943501,053068683
946147,455486879
947285,100522306
943546,795265868
934052,218810618
924680,982929409
923057,838559031
932192,927496135
949959,092913151
970494,327928016
988629,777571231
1002743,73405257
1011864,63527675
1015596,75361404
1015424,73782998
1012275,05159134
1007330,21424752
1003503,92688072
1000933,10235745
995534,532353066
985570,304021552
975436,336442947
970622,517833397
970936,234156936
972129,800490379
971478,483373165
967593,23487556
962669,566643417
961182,156971455
960958,994882274
956637,634275928
950079,674000368
946793,993968025
947894,123511344
951417,635451138
955450,706718981
959533,409593761
963989,156209409
967004,229822308
965188,045900553
958778,836271077
952738,492069289
951811,547162805
957592,115596965
967961,214488924
978068,656837106
984744,246635079
987598,344637632
987570,956193864
988140,186533868
991405,94641263
998527,158251762
1012390,5474208
1029510,02211996
1042464,28550252
1050355,33518046
1057693,15808964
1068762,53977782
1084944,27040917
1103928,47198111
1120549,25948426
1132393,18137751
1140250,57219401
1143020,50410863
1140160,46306869
1133802,2363826
1127412,71484947
1125866,17085272
1130075,6881038
1133632,55733055
1131998,1882858
1128107,44458222
1126391,46955132
1128448,7394321
1133685,79834855
1139688,46562499
1144876,70758265
1150325,25682408
1154249,54060417
1151824,4303546
1141321,22744155
1125619,2882255
1111969,48551686
1105622,81746521
1104245,45212503
1103327,37199173
1101719,73940691
1100959,45558202
1100633,62635052
1097701,13287449
1091934,94888449
1087870,23013765
1089041,04485768
1093983,55976575
1097909,56848762
1096655,2834575
1091545,9887916
1087680,39921972
1088366,51090872
1093327,90230066
1100664,23703718
1108231,07588196
1113686,02550107
1116209,78381848
1114672,82420786
1107743,08670984
1099287,51346263
1095828,7534138
1099285,19051865
1106778,58524573
1113610,54725796
1117796,87196529
1123259,89144599
1132962,69960645
1143218,83890381
1151929,78066599
1163610,99485099
1180214,76364994
1198819,76157859
1217339,12714586
1234159,75788492
1249412,5782901
1265139,01288253
1279504,65510666
1288854,41874117
1295857,44079852
1307673,47978798
1327084,10284165
1348707,80632859
1363112,79147467
1366191,09152848
1363957,54057497
1365565,82106143
1372418,86778605
1378939,14670706
1380913,03286684
1377541,21504635
1371975,06298655
1368149,70990855
1364872,69280568
1360769,6117425
1358517,14471325
1359950,12136006
1365113,34189939
1372568,95770198
1378579,85917383
1380171,04201889
1375872,22933382
1366319,52112612
1354419,00254843
1343353,33528782
1337586,51153716
1339977,23858359
1347117,37336108
1350397,9315201
1342170,30116582
1323884,80899668
1303801,76690006
1288137,40141219
1278989,33815371
1274086,60975934
1269478,74989474
1263288,91361605
1254011,63360977
1242081,13726562
1233220,93171567
1233383,9372856
1242994,24656999
1258144,97953582
1271996,96571556
1278002,46645323
1275357,15271471
1268590,40975249
1261443,15758738
1253172,10302764
1243248,44684297
1233894,24036843
1225559,39801234
1218082,16531309
1211428,50983512
1203113,81219031
1193978,47182027
1189291,39577408
1188811,08568791
1188050,96938354
1187252,28110075
1187776,18619889
1187968,84829539
1187577,15844575
1188558,16480753
1188788,4484275
1184877,33492986
1181306,81404315
1185088,91565737
1196367,61814988
1206559,08445829
1207109,00147802
1200396,5635969
1194146,33709431
1192409,52838647
1195166,52279004
1200460,70852438
1204926,63371748
1204579,77062601
1200495,53484452
1198759,69172227
1203379,78432655
1213901,45193189
1224998,24758095
1229346,63988236
1225225,78071973
1216916,52414751
1207564,43990014
1197094,14082432
1186353,04671717
1177972,16924286
1173159,25644743
1171287,73929691
1172040,64838099
1173867,81845546
1173772,78234139
1170936,26877254
1167136,20330757
1165572,15473658
1166912,8676526
1168727,2545301
1169353,46661565
1166703,78127033
1161011,1261453
1156891,20146674
1157519,47033226
1163456,28360602
1175642,32152118
1194592,17080602
1217868,37956515
1241078,53482676
1259305,88908345
1268952,64122069
1271787,97320026
1274054,18759948
1278599,5360142
1282974,80847082
1287251,8935857
1292257,15765089
1294921,8013687
1294486,66691184
1295661,89534593
1303309,70102745
1315699,93123716
1326607,95804268
1332517,60526031
1334522,04773688
1334655,64165565
1331191,83852333
1321795,95719686
1307769,90278289
1292643,3105346
1280211,93879765
1272385,28329089
1270460,93894359
1275351,79632741
1283446,46539336
1290157,57490981
1294739,9439407
1295591,58487803
1290705,60564935
1284231,17482859
1285031,92453527
1296799,64472923
1311700,35122567
1318527,30211422
1314513,07658064
1307490,42523852
1307085,34101617
1314312,02137226
1323680,39278227
1331307,22003424
1334656,21107239
1331776,80655667
1326487,01838651
1324285,0628013
1325779,43585706
1332089,81084597
1344676,1699701
1360067,04429096
1374929,23977256
1389872,77374214
1406531,87921262
1424377,3333416
1439687,50493896
1450076,36513802
1457938,155653
1465924,27478963
1473900,9771018
1481330,84738529
1487171,24452579
1489351,98219299
1488720,13413274
1488589,86836833
1489027,69345087
1488170,93342933
1486310,04873022
1484417,62073308
1481158,19571069
1474130,2378819
1462368,97292411
1448775,33078158
1440581,02937543
1439909,20407903
1440729,72783363
1439335,84690776
1436677,79265469
1435560,71633095
1440067,02897486
1450158,73668516
1461108,53002161
1470626,76012605
1477923,95236462
1480747,48858815
1478856,95027792
1474280,6782977
1470025,81299669
1467955,37768498
1466179,07436001
1462379,47689354
1459206,76794565
1460486,71149659
1468186,96842796
1485933,33364677
1510778,80364174
1530776,03902477
1541447,24854851
1550757,69453499
1566329,6226708
1585765,61279789
1601451,98564756
1609966,0120095
1613234,03808028
1615147,38957065
1617301,37739789
1618919,1927318
1621186,12993819
1626890,5691537
1636388,86661956
1648066,59709996
1659851,73548025
1667438,6538493
1667768,84802425
1665036,2635231
1667078,66223794
1675063,70127118
1683066,17845839
1687304,17560795
1689108,59799156
1689441,29826581
1686496,41106999
1681807,33970851
1679799,2774114
1681816,05100346
1687768,71210408
1696137,79413807
1704100,4947015
1710817,05577479
1715534,98616362
1717671,66518828
1718955,38702381
1721240,28093719
1724022,78544378
1724628,80430949
1720048,65065223
1708888,39077616
1693900,86747482
1681190,85757683
1676267,34049787
1679355,14391714
1683985,29648244
1685787,97924471
1687736,07146633
1692352,31669992
1697911,55398965
1701017,29145509
1699628,91315445
1697995,22044364
1699933,84323153
1703016,05622774
1706116,6099351
1710034,50450772
1715664,25886232
1723965,65116638
1732505,82270342
1737214,05274856
1739033,09388071
1743660,65602982
1752372,9708885
1759783,62505221
1760441,74137515
1753741,62959564
1746034,63188273
1744321,64786798
1747334,16937929
1750585,71309873
1753452,68323863
1756177,52900743
1757697,45866418
1757240,64749271
1754017,8554073
1748124,4026252
1745008,91321117
1751552,01316002
1766444,31292954
1781747,73845151
1792076,20296431
1798183,03480166
1802336,31098181
1803576,82849705
1800417,38346946
1796754,36253291
1799321,35004961
1810205,54435861
1826375,69849411
1842080,17483038
1854359,53302076
1867819,78688854
1885813,22611874
1902606,42024279
1913381,19211066
1921722,82599473
1930689,33351076
1937220,85166013
1935753,62836352
1923477,41205907
1904376,65156978
1887978,72905314
1882412,69051039
1887005,42704046
1893742,38576281
1896239,56636888
1894792,5672009
1892268,56965971
1886876,04173899
1875844,34322333
1864605,09357461
1861558,15512517
1866144,74607164
1870125,7043857
1868094,45222574
1861114,42232805
1852137,06443512
1841915,90736365
1830196,38054848
1819533,54259968
1812851,88386512
1808552,06977141
1803867,69595686
1801070,74361348
1804949,84839454
1815492,44135058
1829568,49859947
1845183,06563151
1859544,45832884
1868263,68558568
1869878,52210015
1868771,71931475
1869062,39678285
1868157,90594974
1860826,28908634
1848821,92207283
1841464,30678296
1844756,98291951
1855493,9452343
1867103,93694097
1875460,37500292
1881117,23070562
1887344,10223043
1894098,16447723
1899976,51068538
1907280,75144976
1916440,17919391
1923002,31620526
1925331,78593487
1926688,89402235
1930487,30535954
1937981,64230067
1947197,09079421
1954066,35218427
1957437,0330548
1959962,74341816
1962081,36972064
1960791,28429925
1954293,90414083
1945440,6186043
1940229,26374942
1941447,03634131
1946561,42395994
1951262,29050106
1953598,32460296
1953212,91713846
1950192,54618126
1947860,96812767
1949102,63208157
1953115,64091378
1957910,46083099
1961888,83985221
1963948,7447629
1961440,50911397
1952049,32682037
1939172,34761626
1929340,73437726
1925998,99624896
1929717,55948162
1935879,8367039
1934733,840801
1924760,43404955
1914478,28002167
1907843,55802351
1900802,68216735
1891046,12389582
1882537,19695622
1878174,7941798
1875486,34271848
1870012,20099854
1859189,29209942
1845477,0013324
1833963,49673557
1827176,91504276
1823943,24775565
1821585,45027947
1818389,78751844
1815292,37922233
1813732,11062771
1811977,57594544
1809529,55163145
1809053,57582396
1810695,21734977
1812477,56239247
1814207,79063272
1816616,26040876
1819582,69379175
1824133,35810477
1830867,78962451
1835763,88803977
1835009,18219858
1831903,89723021
1833616,50870991
1843288,14599526
1856708,84411579
1866152,5294857
1868945,58297408
1867424,88526195
1862901,63658082
1854497,30619568
1841711,36346769
1830293,09709352
1827515,27467787
1832561,92805994
1840252,08441618
1847532,55057526
1855093,512178
1865332,83001429
1877934,65407479
1891255,08268648
1906683,21011853
1926058,86447561
1946540,88110167
1961743,58678949
1967192,1402781
1965366,01902103
1963917,337403
1967913,875251
1979605,23878556
1999751,26217699
2024624,47935432
2048350,96585453
2065881,10714918
2074233,5125075
2076399,92628682
2079362,01196694
2085017,00608945
2090317,88197374
2094291,32607967
2095898,47177672
2093531,47461694
2089315,49566543
2087883,9934535
2091752,42999113
2099436,28099144
2110545,74901628
2125212,00081992
2138566,10405928
2144876,48641509
2143599,20956063
2137820,83247435
2132833,19557476
2134184,67994845
2140911,23049927
2146490,42739272
2146756,64064944
2144022,37349224
2144498,07140702
2151042,16956747
2159377,16760409
2164735,86719662
2167988,42005718
2170763,15094018
2171817,31194353
2169686,92147547
2165306,83253253
2161590,53574163
2161028,24951577
2164003,97050607
2167236,06175703
2167579,63971424
2167271,19770157
2167969,08054781
2167351,58137828
2164425,18941683
2161711,21925825
2162355,65005535
2165949,61618519
2171747,23722672
2179666,57165486
2185955,41912055
2190236,90080452
2196644,23937058
2202619,86824274
2203356,3414678
2202927,34892207
2206812,02426118
2212930,68556738
2217558,9250282
2219313,94571787
2219529,66071755
2223356,83517122
2234599,56038511
2250483,3022455
2264813,86867493
2276610,62305713
2289106,7496022
2298886,75479722
2300602,70194918
2295920,46606839
2287649,38345152
2280342,28454185
2282726,48729694
2297579,24865127
2317521,08264315
2333996,31719804
2345275,35602844
2353225,6089828
2359306,0679177
2365919,82436979
2375207,35821861
2386877,82340932
2397233,98291987
2402852,88052845
2404805,61995828
2407173,20335859
2413724,59104097
2426335,35971498
2443653,74408364
2459636,78967321
2469794,26006472
2476510,3772456
2482419,19555956
2485663,75680149
2483174,24064106
2476570,22839582
2472228,08817303
2474058,68029588
2484100,41232693
2501965,65495139
2520356,97558045
2531547,91663426
2534519,41598606
2534724,63955069
2536428,22497308
2536701,76768661
2532455,09290886
2526163,08469635
2521232,46268791
2517473,77204698
2511422,28149492
2501825,05728716
2494383,26105928
2494103,9565599
2497976,26898909
2502706,88066053
2507490,77765548
2510319,80905539
2511325,72946781
2512250,9427743
2513935,41864341
2519915,46568906
2535095,03026301
2557111,53195858
2576596,82902908
2587047,84297383
2589572,57870984
2590150,38916922
2593292,75855958
2598009,31135505
2600754,26282614
2600133,64843881
2596878,11162472
2593686,46677482
2599733,146595
2624272,26746559
2663711,87585056
2706289,33073759
2747256,50640297
2793284,50402033
2851476,73794281
2920883,51827401
2994509,64300418
3063165,49078321
3122309,52635252
3175116,69825089
3226417,35862291
3279878,17700732
3336965,47695625
3394321,22917831
3448958,59840685
3502762,05911183
3558251,28742099
3616154,42775297
3674499,39727616
3728897,57101727
3779754,27532315
3831871,49832237
3884899,3877387
3934736,61851501
3982075,68027073
4031426,69291544
4083373,6846261
4135214,4514693
4186825,05889368
4241448,56086946
4302604,36376297
4368865,42734194
4435068,07072175
4496026,46554279
4548112,68259537
4594470,13326573
4641376,69544089
4689933,70553935
4737641,12884021
4781973,44907403
4823734,85193896
4868328,82497013
4919535,93089175
4975561,73515129
5032985,1318289
5090783,25965989
5148325,03482056
5203274,96007133
5253684,81616187
5300422,21312332
5348438,11530519
5403172,40167367
5463241,79718506
5520673,22361183
5570419,99162698
5613633,70693552
5652744,07649136
5691344,20011163
5733900,95243454
5781104,72193265
5828444,83622599
5870306,40438819
5904303,9106009
5932122,86148763
5959862,51158404
5996666,91517615
6048496,3662684
6111966,9540236
6178813,34281278
6241621,62783337
6293959,02065754
6335562,27687168
6372011,9263835
6407965,43164802
6446311,36666393
6486586,00797677
6524083,34326291
6556219,63101149
6587109,09115708
6623068,41445518
6666496,23455405
6713948,68794489
6759722,94693565
6802069,05277705
6844437,03775167
6891029,26729655
6939145,98251438
6983365,64777446
7025108,75769377
7068884,09095812
7116895,0426662
7166333,65769172
7211233,63121986
7251856,14929819
7294707,92417312
7341536,90145993
7388375,1989367
7431833,19168806
7470998,19898319
7509278,2963295
7551658,61245012
7598289,38356686
7648638,1363492
7704100,70919633
7762181,45023131
7818135,73625684
7868337,36381578
7910253,66416121
7943159,1500411
7970494,49301672
7998998,8805871
8032228,28109312
8069487,86272764
8108746,2235918
8147523,11870646
8185603,99928951
8226214,1796701
8271389,97293949
8320357,0788517
8373153,79051757
8429639,75046563
8486555,06813836
8539508,60834169
8586949,5595541
8631376,46511912
8675907,27809763
8721635,19764829
8768134,28554845
8812352,99136233
8851983,68510985
8888584,38026094
8922502,38279009
8952274,11856246
8979418,36537957
9011424,2504921
9055390,60833311
9107861,50094342
9156032,36686516
9192996,34548116
9228121,34506154
9272694,50514793
9325453,55094981
9377466,17290211
9423573,5953629
9465731,06564832
9507596,01541638
9549753,93497491
9591533,46442842
9635330,72073317
9683984,30528307
9734339,98169804
9779669,85175514
9819831,32103682
9859781,76236272
9901422,68900132
9943771,38469863
9985635,10629654
10026516,4661365
10065563,1008365
10102579,6495872
10141217,2572436
10184418,1674867
10230810,466445
10277911,046087
10324772,3831816
10373641,7816567
10426166,5669732
10479652,7903149
10531080,8907208
10581627,4154978
10634793,2332475
10692636,1301556
10753524,6977539
10812470,4282007
10865524,6055167
10912032,8840475
10953659,7531927
10993454,4797494
11035124,8746781
11080091,4789448
11125378,983789
11167545,4179702
11205606,2097502
11240297,9026151
11274480,9211392
11312171,3695173
11355089,8993378
11401494,3358233
11446557,6729648
11487116,5319443
11526032,1480646
11566954,6034861
11611140,8036666
11658486,1853962
11708184,5242534
11761079,1256495
11816836,6877646
11871118,6846189
11922419,5610323
11974058,6750011
12025501,5836935
12071351,6465096
12110682,9468737
12148195,2762756
12188542,8542719
12233826,4355173
12281563,5471478
12328349,3665195
12375147,8173027
12425826,2173214
12482939,2624855
12543866,3149462
12601684,4133801
12651988,6528316
12696223,8170309
12739951,9111171
12788925,5172238
12843077,4579782
12898135,6226301
12951110,7897329
13001804,9383936
13053888,1106148
13109771,3094177
13163727,4552054
13210023,1132565
13252106,9973874
13294566,8285437
13336725,0105662
13376805,0325036
13414860,9899664
13453089,0622873
13495665,9485097
13547807,1843367
13611032,7965508
13679372,1836047
13746636,1089096
13811643,4740467
13874132,7838769
13931993,1457243
13982007,9178481
14027057,2812934
14074662,9210052
14125540,3300843
14176240,0692058
14226830,0171986
14279629,3625827
14334223,0435133
14385285,6855536
14430504,2203903
14476796,5987363
14531430,8905454
14593690,5691533
14659072,8743749
14724214,4573431
14786660,5050116
14845326,035399
14902219,3026433
14961667,8979964
15024403,779439
15087005,2506676
15147575,2130513
15206307,1309757
15263841,2373362
15320291,6036263
15376198,0433311
15433690,2494512
15494649,9412065
15559276,6693926
15626593,4274626
15695631,3597312
15764139,9956388
15828179,2356744
15885601,6385541
15937490,9816804
15986651,8815823
16026405,1888523
15999336,2709312
15806000,5576386
15410860,2865248
14870222,3148203
14241709,905683
13532975,4421444
12723845,0875688
11804596,2474027
10800184,0772834
9772437,15151072
8803476,99777997
7954243,08278616
7236862,9902997
6619295,79549515
6037509,97080219
5437438,22848701
4798761,27732515
4119420,357409
3406202,20237255
2670332,49516535
1935719,49087161
1248701,88508296
623622,71130991
12770,9490118027
-610243,282875538
-1218047,02011377
-1783888,73304594
-2310233,58172894
-2822013,08636212
-3351567,62927985
-3924262,36162245
-4546212,68175149
-5201606,31060505
-5860681,81531906
-6490993,49070549
-7069432,34457159
-7590699,74176693
-8065279,54280192
-8512951,79690093
-8953958,53124398
-9394417,64982921
-9836487,99018145
-10295090,023345
-10774367,2361059
-11254895,3671379
-11710331,2464237
-12114539,5598717
-12464252,1662121
-12794627,7788231
-13138749,0498196
-13498922,431717
-13863346,1978641
-14224615,7511139
-14578099,1001844
-14908911,2702293
-15215111,0616941
-15526513,899394
-15859730,7040243
-16195400,9914069
-16506808,3941641
-16782379,1183422
-17031770,803623
-17276525,1954064
-17527144,3758626
-17785199,5640187
-18062041,6913004
-18360637,1800585
-18660035,6195364
-18933109,9420257
-19164491,6570802
-19333054,6799097
-19417088,3856339
-19463972,6602716
-19559824,6084919
-19722512,8040128
-19909485,3777018
-20081967,8600025
-20230221,3811159
-20369792,3204069
-20518383,1950445
-20675220,8207312
-20837905,9231339
-21017370,8117356
-21207961,2630286
-21380416,0350232
-21512860,3246088
-21608054,3539009
-21688050,0429277
-21780261,8945818
-21902558,5302658
-22053443,6478705
-22216940,8276458
-22374615,9274035
-22511681,2989392
-22619652,8022289
-22701138,6836214
-22763602,3974848
-22801573,4951105
-22817240,8491449
-22841622,8662586
-22891386,494782
-22948819,6674728
-22992463,4088802
-23015090,525712
-23024999,1022367
-23040487,6801672
-23078053,306366
-23142144,6825495
-23216662,2425518
-23263493,5722513
-23262977,833498
-23238610,5886769
-23211501,7445178
-23180399,9648261
-23143877,9248447
-23108363,6075811
-23086093,1058598
-23087793,1371593
-23113350,4222088
-23151410,6325741
-23177744,553688
-23144029,2665534
-23031247,0345211
-22897606,2024775
-22796173,2773495
-22720673,5261765
-22645890,8989658
-22560048,8581986
-22472033,6516895
-22390217,0220089
-22301463,7835474
-22209924,8614936
-22152590,1775875
-22135620,3936138
-22119159,2726431
-22065755,9770212
-21969292,5830736
-21850032,5047307
-21737598,8480167
-21656202,2577605
-21613648,3449421
-21601404,1111546
-21602610,0982251
-21597641,7354708
-21570232,0236712
-21515424,8325005
-21438705,6939211
-21350736,5018311
-21262792,855648
-21180383,7594252
-21103423,9943709
-21030120,2985945
-20958447,6237731
-20885365,3582034
-20795931,5681782
-20679516,5729694
-20558147,6304159
-20454697,064827
-20360946,104888
-20256638,6292391
-20132610,9373307
-19996481,22194
-19861947,7130656
-19720799,7161489
-19561764,887989
-19414901,4181967
-19308869,1357269
-19225605,4318352
-19126841,909822
-18990394,471797
-18812206,3562279
-18583083,3726826
-18325138,976223
-18112028,327034
-17979900,2581801
-17893385,2292347
-17801590,8842325
-17677765,9277554
-17527130,9166822
-17366356,5645685
-17197322,3087311
-17028569,5194926
-16894111,6530879
-16803956,5193307
-16724370,2932329
-16618527,1511221
-16476941,0864902
-16316814,4096842
-16164869,0343828
-16042853,8380332
-15958186,0386248
-15902044,7648635
-15853511,4397721
-15788991,7320707
-15694840,5490942
-15572250,0068583
-15436212,1234503
-15307734,7510881
-15198724,3723555
-15095584,2395515
-14957305,163229
-14771695,7440932
-14583468,5538504
-14421558,8373475
-14269702,8918109
-14109539,3018126
-13944106,5366721
-13792002,1059642
-13670257,626956
-13582001,0841107
-13510215,5719299
-13421857,6616726
-13302075,5778472
-13167812,9400413
-13031136,1656718
-12888621,0570602
-12741124,2384615
-12599098,3896704
-12473346,290204
-12366939,803941
-12272623,859225
-12160903,9176433
-12010908,413981
-11851183,6733148
-11711407,6290312
-11584536,3585057
-11453146,6971245
-11309886,027987
-11162107,8041039
-11017055,0796161
-10856757,2312268
-10675590,7786103
-10515954,4130151
-10403444,4829223
-10311231,6994753
-10202404,4457006
-10064176,0138974
-9910631,45518112
-9767246,93143511
-9653408,37131166
-9572901,1779525
-9517432,78554618
-9472376,55254257
-9420677,6932559
-9351170,76536846
-9263165,20514488
-9163595,54364634
-9063069,66151476
-8969206,78385067
-8881998,90575707
-8795953,79482526
-8705877,50195301
-8612493,61064911
-8510543,23899055
-8373141,87391472
-8198231,88968039
-8035497,66716814
-7913563,24483156
-7810662,73955631
-7696329,0929271
-7558034,24947457
-7407684,73548931
-7266728,94267015
-7136312,24228799
-7013694,5667448
-6921549,49597406
-6868377,70723629
-6824745,33993816
-6755047,47458601
-6643899,55788898
-6492449,73306286
-6296918,14013701
-6079272,83952653
-5905188,30997922
-5806539,78010279
-5751418,88564396
-5693513,78952575
-5606663,97722912
-5494817,07943821
-5376242,08938503
-5255094,12450552
-5137686,05179214
-5051505,91552889
-5002854,40898287
-4961426,37229812
-4895770,87498283
-4797990,64516902
-4684233,20868683
-4580718,38418341
-4508306,51570725
-4472154,21470356
-4462106,96889398
-4459561,05497473
-4442944,51566815
-4397350,39206317
-4323999,23810124
-4237650,18745828
-4158090,61209989
-4099365,88054323
-4048842,32415032
-3965256,33289981
-3839531,40028451
-3714476,22891098
-3612891,61903918
-3518425,24319299
-3415003,42715085
-3305852,83144879
-3210415,43458319
-3146988,14430308
-3119048,94965589
-3114119,44139504
-3102791,32012075
-3060524,98837242
-2994532,4446412
-2920472,03272247
-2841924,55024624
-2762061,41585994
-2688778,26329947
-2629703,94531119
-2587227,28367674
-2551701,67738211
-2485067,59228504
-2365106,18667746
-2237407,28476244
-2145078,98507619
-2076117,97378659
-2002080,0400703
-1911033,45175648
-1813974,82916081
-1723014,94498575
-1627923,41900897
-1532364,25529742
-1474061,30603456
-1462024,26097298
-1458834,25406694
-1428755,67493248
-1364312,56016588
-1281872,63130951
-1207038,3147245
-1160059,71978188
-1145808,32155943
-1156522,53901505
-1179393,52502704
-1200208,92383949
-1206762,01774621
-1195283,06134486
-1167098,01902962
-1112209,09889197
-1030028,13752568
-952599,31297946
-901094,847454548
-861287,585936785
-815296,180411339
-761608,683435321
-710743,860238194
-677980,496123552
-675042,260176897
-700825,886360168
-740510,468160152
-772029,160460353
-777514,317350864
-742636,441034317
-641360,221778154
-482240,936826766
-338560,203405499
-258519,668912649
-223744,571018934
-198632,743626952
-161298,061223686
-110931,502700508
-55400,0120818615
13801,9337916374
93966,7170988321
145129,673933268
149801,602083862
138578,338409781
147733,845272779
191055,611073494
256101,928052366
319912,757853329
375687,267402411
420098,821854591
430246,203580379
400820,476889849
363572,422410924
352447,709436059
377781,85224843
425829,435656548
470078,970774293
487754,804868087
473310,502131224
434874,645157576
385664,226688385
341844,160696626
316415,476609141
311433,63160789
318495,450085163
325224,41866684
322255,481049299
319033,313080974
352170,752716303
430941,942672014
508928,754804611
556663,635976195
589492,640697241
625310,946890235
663566,694856882
690290,771748781
691567,886897564
665786,351425141
631604,22630024
610324,365540743
600920,613312006
596321,693896532
600488,409369975
616252,124524593
636812,293743849
649396,388140678
644533,535585403
622711,353491127
598990,800031662
615161,534756422
693012,199586153
783372,409984887
838890,181858718
867551,524339318
894714,152284384
932639,083544374
973986,854247715
1009930,33789432
1051141,88511777
1094095,22038174
1103595,92729211
1071422,64420712
1032335,46705866
1019977,97632599
1041133,72673583
1078947,54325271
1108407,56289658
1109839,95184278
1077927,0057168
1021617,89321351
955435,617967367
894004,614704549
849018,702612162
823463,312042952
814911,936795473
828148,559990168
860494,262933582
887466,529724121
894807,241085052
893268,434115887
896116,650608063
905299,190837741
912621,095717788
904971,501351357
872850,195848703
818565,536552429
754134,579427123
695783,22291255
658277,205308199
646060,368904591
665847,52677393
743528,191273987
866724,919508219
962596,937294126
993850,556672931
989681,54383564
990850,764651731
1016481,84890997
1061706,68158317
1121513,54519057
1183710,61410952
1208328,9145689
1174182,6806982
1108535,11379164
1053345,04920363
1035045,21790314
1052548,88132846
1092995,8526331
1159384,82529473
1237369,10490155
1275229,57105589
1253296,27836227
1207702,11708784
1182273,19736343
1192466,00889981
1222717,48559153
1245228,90492105
1236091,49381331
1186977,34938121
1108271,6860112
1019444,70012665
941215,274716854
890792,373489738
871777,166861951
871503,217704058
870370,950983405
852835,755418658
820172,046392351
802495,508724689
822108,226842642
853204,809244633
868185,18149519
873834,597745895
883989,612955809
898669,294459462
905424,966018438
891709,842326641
860529,295553075
823964,525170922
784005,81533742
741032,689250946
705144,923336148
685898,437113047
682022,846991658
681594,876060963
669647,168757081
639379,36239177
595964,676480889
551578,230492949
547959,728961468
635397,695201278
776976,792375624
883193,706733912
932214,044644594
962169,151267886
1004366,03896952
1059094,88561631
1103840,51263809
1112096,61889386
1069676,32644677
982609,007040024
872320,416195035
765946,856822729
686740,082320452
642774,003408432
632479,712303877
665892,875539362
738726,914309382
805156,038002491
830448,239342928
822150,779881239
802961,94469738
788881,465546876
780029,539677382
764976,541452408
731270,33354497
674834,045297265
605674,031282485
541031,712152719
493516,00274992
466819,248950243
456444,861178279
463281,535462663
497838,60539186
544017,467160463
561586,875520945
541670,341192603
511342,615462184
498661,18118453
511224,125564337
538017,652846336
576919,230608702
622639,694681466
639823,38107425
608398,34608376
552255,232331395
508299,75191766
498627,738741398
520197,832241118
573395,607284904
665707,020135283
756550,238326669
787805,546153665
761967,35462153
725174,426686496
715070,036131561
738057,022161305
775299,535549939
807944,460394666
818875,973255277
786857,953327179
712993,215903759
629116,159315109
570306,503599524
551642,094585285
563619,205932021
581036,514272332
578927,742657423
546746,780568659
487719,890771806
412982,075939655
340430,314167023
287615,330914378
259682,231422126
255723,843201339
285800,825717568
341251,571469426
380528,399290919
395470,933291435
414503,177763283
444553,127764463
477639,649920464
510479,710281849
535529,823901713
539080,961375892
510770,961541057
450880,867475629
371136,190489829
290107,372779399
224736,827401578
188355,629537463
199568,189100862
256333,933939636
314149,781680599
336913,677693754
327434,662115455
303621,330157936
280528,816081904
264078,314815521
256105,679717839
271608,766710639
312653,157711089
341324,599890687
333618,645860851
309476,567813754
298205,717161775
310584,77452679
346812,831847221
416096,82147181
500448,5188694
542069,597124934
518150,267728746
463552,578091897
422894,974431992
416796,481123269
435511,2993325
454733,607741207
452149,926659256
416017,845478058
349692,69129777
267906,450516343
190081,851732731
132643,304471061
100123,991501331
86282,1142187119
78902,860484004
64813,3083250523
47625,8342031986
49588,3381847143
70873,0159305334
83892,7736411095
79556,3800611496
72158,832990095
72282,3614655733
75569,2411797047
68999,9763422012
44104,2831509113
1710,20797649026
-50295,8111943007
-102083,116925836
-143902,75962472
-154387,380947173
-119858,265844584
-71322,9229713678
-48022,5412721634
-52520,448084116
-65941,0013775229
-71693,9019241631
-66691,9186728001
-43664,5661027431
26514,3111819029
132236,76296401
204443,123480588
215490,246069074
201626,830858469
204848,32845366
239911,341703892
293731,568224579
352733,855571151
401129,668057203
405385,97807169
353310,516735435
274478,005004272
208626,501015425
179423,753342867
184051,197702885
202409,917064428
218998,054167569
223908,273348093
204404,715155363
157839,199752092
100164,147192717
53250,3301979899
27713,6945574284
18885,0737838745
12986,0384237766
-5600,65959644318
-34961,1542634964
-39292,3423104286
2005,30362796783
53298,5805091858
83470,0071315765
101658,252942204
123531,982176781
148344,655106306
161118,013343811
147845,981696367
109588,085487485
68249,7001160383
42086,3944272995
24438,0141170025
9071,14001727104
3710,56149678677
13235,5503702164
29707,7837586403
36415,143004179
20123,6585299969
-20068,4301301539
-72301,3698266745
-96330,8222696781
-48539,0925884247
42434,4599603415
111823,744764626
146470,592186451
170796,387074709
202438,867995024
239255,50100565
269023,973977447
289891,858338833
298389,618596315
274547,066723108
215118,133138657
146434,454865813
97508,3957371712
81043,9867167473
90036,2654335499
106137,862440586
109763,31026113
89075,3535199165
45646,1940710545
-11436,5870931149
-71575,2078634501
-124040,739244103
-164176,239280701
-187780,609372139
-179527,065286636
-141426,280555606
-107655,861871898
-96847,9088673592
-95494,3033065796
-87420,7305631638
-70972,0768494606
-58233,70192343
-65457,2442526817
-102630,745868683
-166305,6479671
-242322,085915804
-312463,727261841
-360056,098736167
-379032,88452816
-371161,285235286
-322680,220752001
-233002,423203051
-154700,698452115
-130734,762316704
-146871,863916993
-165967,053827405
-162521,092557698
-129944,122112036
-54152,537971139
61213,0138800144
152154,824050128
171206,946865439
144097,359470665
120986,615176857
130998,380998254
170044,063346207
214639,50192216
253655,026738316
280023,068267822
267304,487677813
207844,896756053
136160,462749958
93444,538400799
94518,4076194763
125476,072125793
158009,118572235
165293,30619812
135271,795517415
72882,3580117226
-6397,6934428215
-82186,7572808266
-135619,992611349
-160880,385371447
-161822,590309858
-131594,774200201
-75124,5062958002
-31407,4152266383
-24579,63523072
-39872,3465899229
-51806,2831916809
-45734,3881462812
-26517,761777699
-12852,3044165969
-24543,4114818573
-70866,8608877659
-140186,479308128
-193012,32483685
-197609,959760815
-170501,679642439
-140233,413102388
-112262,761380553
-83537,663728267
-57922,0857385397
-47762,277076304
-64223,761973381
-108634,935629189
-159551,701548226
-171009,69579953
-130466,767908514
-81226,3147024959
-51090,8078201413
-28159,9322296977
1889,96100831032
36031,7696011364
58644,5979652852
54788,2627222538
21264,35902071
-9003,74922823906
8971,8410063386
57746,0185536444
88080,0577923059
98139,4171212912
118260,591186047
163675,049175084
222149,591562092
267259,471706867
275714,408604383
237052,89831543
157537,740142345
57240,9435374588
-39565,6912013292
-112791,130538702
-153148,438780069
-160557,68866086
-128627,858346283
-62725,8312296867
-1687,91790509224
24592,2962732315
21344,570587635
7133,62723171711
-5112,09683072567
-16093,2680211067
-31829,4305496216
-47886,3343596458
-60733,2286213636
-81292,2556439638
-111208,720752239
-133679,330976486
-135498,607826471
-120195,193043709
-97068,7627341747
-60104,1773822308
-14140,5835402012
2346,88129711151
-27375,5614706278
-72452,3514546752
-94355,2320041656
-74053,4670760632
-1580,24909603596
108860,89490068
195536,307750076
212311,853532195
173786,621653676
120340,995316148
84339,4055534601
76279,1479478981
87734,1470853388
112312,749331355
142123,573756516
149967,936994374
118955,00978905
66336,1003264673
22216,6447165906
4455,37492722273
9706,51754420996
28070,1327266693
57299,9127557278
83744,2378174514
80479,2862448692
44622,5733671188
345,37547326088
-27383,1591140032
-28537,1777405739
-13438,4141632318
-2648,56281912327
-13431,393421948
-52920,5248062313
-115055,787356175
-184935,219215751
-245913,898203492
-285439,325480521
-299410,326087564
-282394,387074232
-237563,303181052
-197316,430568635
-187257,607525051
-181727,453367069
-141940,844747961
-79526,5945826769
-29751,0352955461
-1100,02656757832
15277,3649273813
23785,1183711886
20311,8039668202
-1921,90176659822
-44337,5549845099
-94582,2437231243
-121926,119552046
-111073,712123126
-88005,0724828988
-75765,5702754408
-68886,3653021455
-57915,4473490715
-44783,4475767314
-38885,0838324837
-49402,4317353368
-68730,7406493425
-55382,3621269464
6771,5976228714
65204,2423512191
84283,8481248617
89451,4986127615
114858,923495293
165445,777350724
219036,980134368
246817,634797692
230710,526888609
170387,469572544
80848,0628165007
-13639,9165429119
-90789,6202801466
-136307,46861887
-136569,15823555
-95274,2009813786
-48238,4540421069
-24264,3104596138
-21596,9875221252
-27774,5920643806
-35269,2450320721
-45591,1297498345
-65650,8250204921
-86974,5335736275
-82645,993708849
-56317,9002480507
-43737,524544239
-50264,074650079
-49593,816008091
-24131,4403436184
21564,3243467808
64949,0564956665
86925,3980538994
95922,1107752323
99026,0744043589
76399,6639568806
26468,2824829817
-17355,1475928426
-22876,358215034
15099,1797770858
81574,5704030991
168357,975289822
253409,669388413
287201,664185941
254917,69310005
193649,339800537
147196,323035002
137467,797396541
157904,303170919
195377,725425839
253534,483508885
317462,550639868
341068,645689249
314136,767605066
275712,063383818
264064,530540437
287230,495434642
324295,366242409
344346,351412535
324476,134810805
261202,71236337
170532,236594319
77938,6356472969
8232,64906620979
-25040,738361001
-26988,7552722543
-17277,1434345245
-17944,5215468407
-42002,2972743511
-89041,6629441977
-148803,886446625
-206407,753188848
-248414,747534275
-269816,770826817
-261366,612798214
-206415,925105512
-127087,985522747
-79441,1512870789
-79046,3717699051
-94051,4359579086
-94182,1543670297
-73319,0091923475
-44602,6634097099
-27866,6589787006
-39511,3959897757
-84862,07903561
-154136,698064923
-216764,983461618
-243648,603649616
-239642,30823338
-205605,230894715
-122738,717320442
-12709,7976732254
74697,8803545237
122437,379575491
140724,776979029
138497,455581177
119209,517145038
85689,9424075484
44787,8030640483
23833,962385118
46294,9223873317
83726,8857369944
99213,5668240786
100151,95149079
112935,304015815
146265,645542592
186755,324758619
218266,941354215
227186,212475345
199260,349662915
134537,269884706
52868,6358185112
-19025,4207126498
-61529,5769786835
-71592,6875120997
-61782,8369739652
-52248,6037331223
-59154,0587914586
-87570,7401207685
-134231,997445822
-189847,141542315
-242589,175337359
-281977,024078846
-289457,951456547
-256354,049841642
-213670,039121509
-193760,538112149
-193440,832428694
-194508,459533453
-186058,29146564
-172273,680270314
-164015,415972859
-155924,202863753
-142718,752061605
-146498,887188673
-180509,377322674
-222926,912231505
-243190,591268312
-229541,076805711
-183823,996606469
-93983,9404584169
27022,7000450492
111191,693876386
121018,878409892
89309,2222762704
65235,0782594681
73425,7264889479
116890,774449706
200664,831385925
302306,75978893
357555,602997422
338594,355232
283332,943010569
241895,637877405
237939,896320343
263175,957286358
289320,345186114
288411,679435849
248776,830372229
175694,34721297
87926,4577789307
10110,2142932415
-40613,0615361929
-60987,8766563162
-61808,458827734
-62209,4089182615
-75983,2811168432
-96971,308200717
-99831,9242554307
-79276,8996713161
-62867,2163327932
-62379,9058599472
-61701,2831007838
-48205,3049869984
-27754,6658266783
-18307,1518540382
-34137,002088666
-66643,2158250809
-80633,870413214
-62078,9764902592
-40579,8634518385
-33926,746291995
-27722,4620878994
-8334,71071249247
19829,6432410479
39327,5840698481
33522,0691043139
-2695,05142757297
-58760,2488039732
-103010,611379385
-110984,587372303
-99086,8579673469
-89386,4231320024
-81118,3280724287
-69613,4080634117
-58227,3277784586
-54475,87050125
-63904,6242854595
-77968,9530007839
-61354,4754095078
-3482,79569196701
47795,6685770508
61890,7198004723
59664,2091155052
71152,0643362999
104621,02322948
146626,148368709
191505,387706518
235301,920953751
249392,055778742
215292,662043571
152696,650843546
96396,024953723
69488,2675640583
70656,7236573696
81477,8250613213
81228,5873587728
61346,8973504305
38229,132298708
28969,7139353752
22552,6035778522
7890,38523164392
-7172,19128704071
-14587,6682331562
-16335,7223052979
-21811,9585449696
-38677,4180345535
-67613,4115771055
-104906,854851484
-144618,472119093
-181496,685304403
-205029,788499236
-187021,267305493
-123919,059633017
-66256,5842089653
-48247,569991827
-53179,2141140699
-50848,4902817011
-25578,8386826515
13269,9421961308
57526,2221212387
122339,194699764
193349,320981383
217421,715379238
184428,969385624
139438,370881796
127693,765110731
162063,111789212
227968,16050446
312630,267089844
392290,451836586
418770,129624128
376110,2305547
300922,902691603
239373,249796152
216595,58807373
228309,179670334
254310,775891304
282092,413412243
299692,022425175
285466,765059471
236940,72208786
180414,992008686
143582,129808307
134435,677434802
140844,310856819
142056,807697296
121705,079178333
76008,7727217674
12742,9103291035
-53115,6286540031
-105280,589924812
-134564,210485458
-137271,672035217
-102857,828190327
-39984,5379943848
5006,82280778885
5279,68607187271
-17274,4879794717
-21123,0372892618
15748,6216626167
73153,6382176876
117297,500557423
131436,331151545
114090,532140374
70882,9455392361
12122,4593477249
-44625,9253846407
-77601,717048943
-80810,352922529
-66181,8714907169
-43503,6088187695
-21234,2640953064
-7013,39441567659
-3018,11191467196
-10938,6751925945
-31520,5034757853
-62810,7377394438
-100670,19119066
-119926,514109632
-78454,1513636708
10358,8042116761
81277,6011223793
112818,690179467
134042,690722719
170260,258567542
220925,257951081
271673,023426965
319212,725269258
352467,189792335
338990,920929193
274738,290888786
199774,412900463
155880,390728414
156868,527187705
188531,439205647
221985,12568143
229663,832163811
199035,404908061
134510,533745766
52872,4633735418
-24559,2696943283
-82656,3414126039
-111371,605277896
-98280,445800066
-52471,8777308464
-14228,9885323048
-6174,84163653851
-15698,4813042879
-23074,9388344288
-20154,3500654697
-14027,539981246
-18438,9709419608
-44986,3501143456
-97423,751139164
-168689,416182756
-243341,346248269
-303069,134300128
-335523,754766107
-327808,783801794
-248791,078717828
-105214,311361909
22174,5183280818
79948,9997872114
90032,5028278828
92917,7578344345
111243,468635201
142324,372403271
170992,181194782
199468,349225402
228871,756519794
228925,386725426
187288,211366445
136235,290630162
112746,310831308
128489,336292744
166930,380252957
207346,46595484
248214,12584573
280134,26813364
272556,665899038
222309,277301073
164024,383799791
131747,109355092
134627,81430769
156876,401203394
172225,257033587
159519,929639339
113197,114639521
43616,4803044796
-31200,6988773346
-93473,9911310673
-132039,636945248
-146438,642850518
-138371,089116096
-115373,269787788
-102145,03558445
-110272,92114228
-108228,151465297
-67686,4716169834
-10746,5995409489
32498,078691721
59038,686993897
73169,1088367701
72754,6934626102
51747,5345175266
8053,07305252552
-42406,9012773037
-63784,7860063314
-45777,009649992
-20284,2464294434
-6831,3966306448
3310,49223181698
18055,4316794872
32751,9971094131
34235,8043898344
12171,8450063467
-32916,2662711442
-90614,7531411648
-127326,211621761
-93404,2156624794
1010,27248072624
85097,9028782248
127926,19425571
153655,800049782
188246,790264964
234490,692676842
278815,11417532
314924,48718977
333951,924172401
311097,296996474
243036,428440854
162645,415832996
107069,413471222
92368,6021926403
109082,582979083
133655,801885158
143273,974511623
125325,840296984
79934,1355381012
15825,9147145748
-53869,1032572985
-114765,809452772
-158658,34209466
-178624,002614737
-158703,323624372
-105684,863980889
-61504,4284415841
-46972,6210868359
-44863,3080968857
-36007,1476371288
-18939,4021934271
-6113,25433504581
-13144,3615868092
-51032,4123306274
-119099,836499214
-203041,433171153
-280460,547700346
-331727,785471082
-347322,827288032
-303233,149798751
-178662,187176526
-29206,8241560906
62792,9765324593
87836,0236536264
87585,1414052248
96251,5060321689
122301,983067304
151828,68364799
172048,939394832
190489,97672832
202139,586755157
180927,891999885
130905,1195907
88628,3181203604
82768,5897724628
114738,402759075
169981,068201035
238600,258489013
296887,749887347
304397,080121517
255587,069915771
187463,451174378
139625,135590523
129235,235758185
145884,842953205
163975,496242046
159524,232402802
122269,736755729
58950,639636755
-15172,6191291809
-82971,1751317978
-129237,602897167
-150681,836213022
-155281,758780479
-143549,377411842
-118890,960818052
-106545,560670376
-121897,54815495
-150515,166288018
-170035,937035799
-169793,867769003
-153944,149724722
-126000,790591151
-94475,967036128
-88773,2145462036
-122699,008184433
-162832,861341
-169417,054537449
-142521,203446746
-104701,075182557
-71719,8446365595
-51684,0730518699
-51258,5181763768
-76391,1323413253
-124149,067150712
-174014,131469488
-205380,968136728
-214058,497637421
-181611,23387238
-97748,2813631892
-4773,75226554275
58823,9007642269
95118,7138548791
117245,384920716
131472,985374421
133715,409322858
124451,292417496
129508,406200752
158983,477856532
175481,112397134
158714,301106036
135423,387185514
137935,602552831
173302,050976876
221649,651220679
253612,521541595
246761,223387122
198160,427832365
133239,173265696
79460,8605980277
37204,8128343821
4656,20521497726
-7376,36618518829
5647,10087764263
33481,0497346167
56644,4133652449
58695,5461390018
33244,9279477596
-16652,7720588446
-81024,5327712297
-148075,141470313
-200973,009859324
-208998,531360626
-165306,342345953
-113363,125031948
-86561,6510532498
-76093,2007367611
-62763,3885865211
-40295,0467376709
-19216,1292552948
-9981,4638884645
-3134,65611243248
3180,4094851017
-15981,9943358898
-64878,7937920094
-110722,194370568
-121169,089350224
-89945,1892141104
-17498,875382185
101842,953148127
227435,973560214
285936,414132394
264502,464594245
212887,839551449
181558,994975328
189154,008039713
222018,430752158
252980,35839361
261851,38522613
240596,971114159
187551,71434164
113909,12936151
44965,2768342715
1544,25192320347
-12925,2418274879
-9754,40694093704
-7037,79113030434
-11538,6361566782
-302,246653199196
36762,7560739517
66342,3814828396
71812,8700459003
73670,6703417897
90867,1952893734
120980,224223614
142978,37199688
135841,912587762
92158,2024445534
20220,9173418283
-60995,1188488007
-131302,50352025
-173545,298267722
-172190,858191103
-132748,795821309
-93052,04048419
-83138,683586359
-92645,0454646349
-78293,2228843272
-19962,3438177109
44814,1319098473
81219,1660981178
93338,3419246674
96938,9159369022
97506,902128458
87584,1762013435
58365,0362033844
9419,06097388268
-45606,0404766994
-71847,299951911
-50709,7602483034
-13932,3085187674
7989,87090271711
18327,7247527838
27645,4526979923
37825,2354099751
41481,1107661724
35842,6210899055
45986,5894819498
86620,2906278372
120556,719617486
119980,674662352
104554,526304342
104564,22731936
130394,259963155
166217,970198631
185517,927176356
170485,901337683
119311,00575459
42555,5520749092
-42973,2888816595
-118369,547103763
-169308,774058223
-190554,790594101
-173958,356374502
-123100,202179074
-76727,1441488266
-64442,8175184727
-75442,001172781
-86928,8936212063
-87446,953758955
-82397,2096280456
-81900,2180430889
-78031,5862488747
-66788,085862875
-72869,6310229301
-106073,500996768
-141130,363061965
-150362,425830722
-126914,891676664
-87984,0913102627
-49048,5001457334
297,591370046139
53350,1789981127
66924,1766828299
31467,8314530849
-10844,5522457361
-17922,1705469638
19306,5764517784
85982,009359777
174904,855353594
264116,499020576
299408,309763551
262682,698955476
195826,799703628
149726,859430015
148474,220270336
190484,708721399
266625,470495403
345368,272174112
374435,177499533
338071,707825065
269711,465676904
212844,049943328
191839,729849339
201488,581792831
217697,395164847
215583,513478279
180822,069449782
114748,278720021
31937,6959960461
-46481,7754064798
-100748,547309995
-123181,108545661
-122193,455067903
-116981,894706726
-126979,505534291
-151725,141697884
-156209,668654084
-120802,6891011
-80625,0960329771
-62086,6652044058
-49043,8304277658
-21416,1122757196
19378,6213325821
52604,1793388724
56548,0856583118
33482,6991909742
357,928103536367
-31923,0026401877
-40158,4865117073
-10350,0431630015
37360,4331459701
87139,8679228127
137165,755829513
179338,87998271
199081,483750045
186396,31702897
141810,772556305
78566,5213075876
33487,0273320675
33474,6507465839
54036,1042954326
65040,4771008492
68943,2964816093
79049,3346643448
99324,1418748498
124761,450460434
160813,682705641
206259,647829533
226145,160830021
196772,9167611
139020,788112998
88963,0660512447
66419,3606462479
67296,1335022449
74586,5481755733
71581,6264920235
56311,1786074638
51544,8670630455
67725,3251004219
76966,9492413998
63771,8323397636
45127,049993515
37287,372079134
41106,9331655502
45203,217286706
36182,565087676
8157,55969572067
-36024,267781496
-87520,741091013
-137225,517193437
-178533,785630345
-198283,682104349
-191139,676558495
-179809,956863165
-184625,783407688
-200248,840231538
-211493,165265322
-209265,854328394
-198218,811985254
-186013,648617387
-158571,205996439
-110802,117913485
-82558,9675605297
-99312,9782485962
-134392,136097431
-148128,656056494
-122713,916910291
-53171,1668298244
72413,2089221478
221318,650600672
310490,992144346
310608,945670843
267123,869997382
235728,638330698
243353,518644094
280417,650939345
316117,582565356
319993,4630934
277283,393074274
195028,416816235
96590,3862798214
9001,3041484952
-48768,9953989983
-74667,4972712994
-72267,9197158813
-28271,0514695644
49586,5965944529
106910,359846592
113727,42676568
95235,3692548275
87796,4887385368
105387,858426929
134785,081409067
149687,154216647
127867,904453516
65093,5080552101
-23791,5714663267
-115868,355427772
-188757,668390274
-227852,362717628
-233073,245653272
-206825,763271213
-146554,46483463
-77509,5538476706
-47455,6342478991
-59058,2156406641
-58115,1507927775
-9832,74593701959
58991,637370944
112951,586364508
144465,122358799
157319,668318868
152379,048681155
126176,257724494
78828,367421031
28714,7387298048
12080,9070506096
34736,9339419156
59301,3121315539
65876,4205255508
67893,694594115
79162,9061430618
97695,3238679767
108634,532482445
97660,4546055198
60727,6204227805
10293,5305727124
-12076,5994581878
19597,7025182247
65355,3339399099
86315,3646684885
96864,6420350075
123283,238192976
168147,52859658
213296,669672489
235578,505784512
217751,405015469
156318,04043293
63455,3008928578
-38320,8088761568
-125587,992608309
-183613,141382933
-210337,36200428
-214625,985947788
-207728,193705022
-183375,929695368
-136122,420644999
-96430,9248020649
-92458,3962219954
-114405,113962293
-139911,319069624
-152292,031257629
-134552,229552507
-90281,221485734
-58152,6452933401
-62049,6693507433
-85323,0924496651
-103365,964098692
-102478,531717539
-66148,4048096549
3364,27746832371
57587,2696297169
58760,8950529099
20177,2150709629
-23629,2249362916
-45430,5371272564
-39409,9542148113
-11796,1362755299
47559,4049299955
131422,393560469
184211,37302506
175410,124176621
136332,899725795
112040,438072205
122327,951079249
160277,66150263
216789,198868036
274399,490282178
293711,051425219
256024,261033058
186370,564432532
122148,962946534
86560,292957902
80125,5111923218
88032,9496599436
101980,276798248
117318,031010568
114523,383730888
81415,1194624901
33011,5163785219
-5494,27032864094
-19493,7038205564
-14107,4502272606
-7546,70878076553
-18571,9080960751
-50303,6675653458
-79472,260271579
-90628,9437645674
-98318,8941967487
-108592,781619787
-108407,111960888
-90920,6505180299
-66097,784318924
-55147,2623038292
-74093,6719740629
-112527,662920356
-123003,201171815
-81485,7984310389
-29936,6435515881
-956,87856066227
19650,7802709863
51588,708619535
94647,0235835314
128792,792846441
131348,821333885
96442,690623045
45608,6522057056
3346,35616290569
-31764,8131847382
-64242,9805449545
-84580,9227558374
-84799,6844961643
-69908,8520243168
-57429,0800817013
-64444,0231849849
-95197,9632247686
-137350,991580963
-143741,638659
-73234,3076219559
28580,7897427678
92128,7054629326
117427,74443531
142822,046074629
187795,165080905
242500,459899664
283664,126453638
287896,87334156
243665,988656521
159146,328584671
55113,553113088
-44973,0012638569
-121405,182947874
-165552,478941441
-174244,004878759
-136796,293340296
-63468,1247246265
-825,404846668243
22632,5040378571
18377,0891318321
6564,76873618364
-3538,35885167122
-15002,8867924213
-37712,6423687935
-80218,5770440102
-141586,465610385
-209783,444170356
-267030,706030607
-301009,715835571
-310747,074489117
-283139,154374659
-204808,758885264
-116878,501532316
-76061,2968776226
-83999,0862584114
-105387,894694209
-109357,256379187
-87709,6141307354
-52503,9572880268
308,967022657394
76983,7430859804
133646,719267085
129987,544393778
88827,5103509426
59273,9453752041
68899,4637036324
113379,498101294
177712,360988557
239477,583062053
260049,487820864
219443,039310694
140541,558961272
63124,5449556708
15286,8221981525
1967,38680195808
10180,3757300377
39022,502368927
92721,5024543181
138258,45392704
140472,823929548
110820,211464882
85201,7810133696
86917,3752872646
110928,987545609
132413,212786436
125848,401189566
80176,1441260576
5495,87086609006
-71778,7524130344
-128773,460287809
-159580,426300526
-166038,872157931
-150550,695940457
-109100,744500756
-49019,3267070055
-9430,80791449547
-8073,66481411457
-8325,95068166405
17473,5092872381
53453,1218490601
83325,983743906
107305,705279112
123603,01212588
124658,548582971
102409,156022549
54212,076474905
-6848,07053488493
-42573,6809278727
-30368,7719888091
491,507803559303
19267,5430744588
28473,3458165228
39679,0808503628
52923,4208548069
57722,3089561164
44169,0955151021
8404,21878272295
-34873,2359347343
-42719,8158162236
125,856008917093
47574,2971935272
67717,9641907215
77337,63540411
100269,216897249
139170,213128135
176628,820453763
191606,352059126
170325,509976625
111240,292952657
24666,9842422009
-70922,8103057146
-153397,448761702
-207534,09186697
-230558,217874765
-215963,153679013
-162877,339621544
-102989,689866066
-58230,3877637386
-19466,4991202354
10906,3770654202
24542,4497259259
26402,4492945671
22330,0789346695
11297,9519965649
-12387,3312126398
-52222,8492149562
-104117,790377975
-157718,205789328
-202842,530948639
-235677,698518991
-256629,265835226
-255275,874023795
-226447,316358566
-199322,573927641
-201198,732815266
-223872,672778506
-243465,464196801
-243936,065261126
-226125,841242313
-179853,157968879
-88143,9862877876
8385,9221971035
47397,6897976398
31079,585101366
7779,08138561249
14566,9918228388
54933,4118825197
115649,232839108
199972,055237174
293895,208005786
337571,857998252
306761,84768486
246629,710210085
212161,428625107
225982,165784001
272549,070497394
324499,174084216
370363,527853131
394849,324371934
370341,369104862
300436,257138968
225888,481680512
184911,855892599
186590,878057957
212091,756017685
231115,875304222
218957,573570848
169502,254452348
94103,6189932823
12448,5419538021
-54690,7413992882
-94931,6993730068
-110903,306516707
-116531,03726244
-128948,342520237
-155047,263427019
-172678,991983414
-142168,37870276
-65779,6277067661
6830,94021034241
52369,0428469181
88979,0563497543
131904,023519158
173950,59099865
194002,201916218
174118,841578364
117890,127690017
64889,2064087391
47856,0541627407
49871,6486985683
51600,0165871382
61384,9555926248
88029,4215596914
122902,206749439
144162,755806446
134264,384518921
90307,2151501775
32047,8660721779
9718,9489505291
47060,2627309561
99079,8793134689
127543,963428974
143147,194988966
166250,896462202
200519,734160304
232025,966172695
248336,909215212
261440,017440796
277277,237752199
267280,36193037
220364,655414551
166985,6629076
139137,517956972
143512,582618713
164737,143313885
180158,652521402
172404,934632301
136759,229159832
79092,3109273911
9905,21311831474
-58352,4915147126
-115760,851992369
-159665,799547195
-185962,464562416
-178169,722168684
-137336,767578632
-98966,1932315826
-84287,4135458469
-80943,7644429207
-72672,8434791565
-58943,5151364803
-47338,4126904011
-34842,1509149075
-26606,0623524189
-46267,3643260002
-95383,7236298919
-144602,621253252
-165221,908461094
-149672,299604893
-110433,120462179
-56330,6757252812
27,6430249214172
20940,4320522547
-14738,7184126377
-81365,9300467968
-136597,998163998
-154443,02610743
-122726,91267705
-24255,2379395962
116395,633922219
216293,771243274
234801,409203216
207188,460300177
183209,974996924
188513,392894864
216326,225312948
244575,922226429
268107,991355039
284481,495515883
267488,770088077
209208,167577386
144398,192780495
112959,910153255
126212,512634963
165367,742765129
198701,927273035
197751,930847824
152345,945519805
73390,4508104324
-19047,9587427378
-103734,685107589
-162673,970292866
-189837,902517587
-191585,158765912
-170549,415625215
-134399,028236747
-107499,641639709
-86750,8748566806
-49851,4993220568
-7757,41810190678
23919,1259909868
51895,7211137712
81847,020129621
104607,731586814
103842,347489953
69575,734691143
9135,81152264588
-45661,1464284658
-70240,2530235052
-76934,5918934345
-80547,4312118292
-78141,8266504407
-67161,5705102682
-53972,7907725573
-52374,1477453709
-73126,0790636539
-115686,407999516
-165321,859721184
-172024,895489693
-93970,187078476
20168,2429226935
97416,6741527319
134286,019003153
165424,51950717
210916,122316003
263807,402534902
300560,225122929
308432,702222586
303946,722044945
293317,797302246
253746,562419742
189875,47995162
141099,58485961
134616,05471611
167575,994689465
214453,79712569
243754,861163139
235801,70323348
188554,396161318
111803,64394474
22513,1097447276
-59746,2619074583
-121667,915386438
-161214,882121086
-184858,952149153
-202219,40292716
-209596,630792022
-177973,487115622
-102805,427811146
-33310,6107285023
-3477,89706575871
-287,556814074516
-1968,56207323074
-2797,03163766861
-11343,699889183
-36651,0133941174
-80081,9212232828
-122909,403002739
-117128,837480307
-48026,0345494747
28470,8266290426
71543,3740534782
94641,5897297859
119543,445291758
149129,550736666
169660,099174857
165402,032519579
135157,909637213
107259,403366566
104135,908123016
103818,293987751
87772,7071508169
71870,7770826817
74583,3115549088
96392,7999503613
121881,446861744
138527,675117135
156121,192093134
177746,649448395
176631,275348425
142025,021183729
98217,9291427135
73089,8656413555
74259,7702026367
87500,8510656357
91667,9871622324
71795,0613033772
31014,1086502075
-2706,89358139038
-10191,2577192783
-9540,13383936882
-18116,4892113209
-29282,5966434479
-34736,167195797
-36156,6464576721
-41689,5306106806
-59206,140679121
-83531,9067153931
-89487,1874957085
-68793,1689488888
-51307,5863908529
-56044,8846349716
-72006,9058787823
-86137,3116188049
-94791,481061697
-102231,970441699
-113245,781129003
-119596,97972846
-114262,848973513
-114685,701948166
-136712,170511127
-169958,973377705
-195246,040286064
-206007,120950937
-203186,47015667
-173621,631251097
-118125,999854743
-76652,9165143967
-73488,0422468185
-90082,0627818108
-99490,1919181347
-91943,2496880293
-77096,9960300922
-74273,8083388805
-100476,847778797
-158780,780192971
-224795,320473015
-248165,005021453
-210644,227393866
-155182,555605412
-117958,737559676
-94420,5644925833
-72231,3431971073
-52508,2677431107
-46023,5271952152
-63054,3613320924
-99875,3604348898
-125714,853285551
-121127,677630782
-112009,264237642
-119280,77958864
-127851,194815159
-119241,570590496
-94546,2296005487
-70766,9417356551
-67414,2081506252
-93595,0036833286
-145916,104818106
-214156,328384399
-283968,666408241
-342666,261046767
-378859,982763052
-368493,602891207
-307685,971591234
-243327,180785239
-211704,370898008
-202636,155797005
-194155,277577162
-178145,584182858
-163181,530939162
-147971,557492197
-109319,925479889
-57863,9423077106
-40582,632237792
-62056,7408428192
-81182,0195270181
-62386,6409783363
6742,96934592724
104180,829999089
174762,323384047
175797,875274241
111255,890658677
15306,9609825015
-76775,9302259684
-137561,121141672
-143522,326382637
-98037,1879068613
-43119,921379216
-14669,1172905862
-15292,726570189
-30391,0447309017
-47305,357391715
-56225,3437388539
-40017,8262833953
-1872,01847600937
18902,507712245
782,692180991173
-35964,5574765205
-63006,4834980369
-67758,4029042721
-47556,9501136541
2963,85445523262
66571,2814252377
98823,7623608112
81809,2515695766
37539,148591876
-4644,20996570587
-29075,6437700987
-38006,0654810667
-44403,721442759
-61796,3032848239
-85450,958935976
-89723,7246029377
-72194,0940823555
-62339,7465925813
-71050,108751297
-83666,8924030066
-87480,3066580296
-81435,7787921429
-76602,1055575609
-75547,5336565971
-52972,021856904
-4892,37117195129
27450,1470489502
26895,4903236628
18474,0944058895
26309,9175007343
63042,2334837914
136934,537132502
223196,42689234
263625,972048879
238641,882319689
183513,534447432
139821,086458683
125827,087004483
132337,467606068
137305,9742558
130065,570151091
125365,642996311
129491,514935136
119365,902164578
90248,712854147
68240,4204380512
72693,8856931925
99532,8474550843
126416,267037749
127531,356863499
89597,5962061882
17270,3264769316
-70981,669069007
-151893,267248392
-208564,426430464
-227042,30382216
-189182,8807199
-109129,538219631
-44622,0485394001
-28251,2364031076
-43292,4269666672
-62384,8214918524
-70014,2242228389
-67448,4940485954
-65674,9175771475
-66818,1045269966
-69967,0246091858
-89827,318754077
-134971,746365547
-188434,564028502
-224972,09865737
-231258,229579307
-213711,762350798
-176575,320638657
-100235,384477019
2786,2668415308
68096,2809486538
70699,6447409987
49311,2042530775
47964,2479081154
88862,030715704
175317,12890929
274448,717316628
324775,001667976
301286,238532305
231604,372157454
157678,803795695
108607,451287389
89600,3154850006
92751,0541069508
120514,743071795
166381,701655328
191932,968490094
173816,880890131
131872,813098431
98456,9687999487
88627,8845055103
95004,5716325119
99388,0157737732
87007,9553394318
63508,2132726908
39398,1363105774
6719,22980965674
-34752,6643724442
-65292,5606000423
-69300,0078029633
-49763,1315385103
-27352,0020877868
-25744,8579370975
-55887,642493844
-113756,103289962
-186375,216057077
-257037,667888075
-311385,77559793
-328999,421055228
-282468,664042249
-189589,455546826
-114516,793200195
-87024,5413464308
-87565,0895617902
-89314,3075288236
-79727,2348724604
-65117,2129268646
-45749,7302142382
-1787,6929859519
53741,9709283113
71557,7253456712
44820,2740703821
15392,5163930655
19555,7153781652
64546,9751568865
152596,850778937
280098,636824369
389849,020019054
417219,433935881
371847,682580233
310898,903961033
279598,144720793
289019,224081755
319524,684154749
348901,617921412
376100,682763875
392481,98108983
370126,878605127
311999,113824368
257444,196586609
237275,10575372
251823,716946244
278726,034172297
290153,931423783
266959,610335529
206975,445017517
123783,263478756
39332,9799542427
-26206,6726464033
-63005,9284625649
-76369,1165108681
-83527,6962738037
-101259,960575581
-136056,104920626
-183699,379692316
-234873,286593199
-280500,974325418
-315257,711701393
-327198,887432218
-288143,249543577
-204197,436406255
-136775,660208941
-120847,722080231
-129217,703232646
-107946,35244447
-32355,3237398863
59594,3965446949
119721,27658844
134810,442087412
113757,935694754
69847,1674878597
14400,7257534266
-43818,6776623726
-98602,6821694374
-138867,256488025
-134314,478346169
-73785,3740956783
-4682,96602785587
30748,5640804768
39794,0432574749
43629,7695967853
50249,513923943
54303,2836078405
45726,3086111546
28323,3343284428
37033,6136865914
84013,540160656
122502,104207218
126793,448923111
125962,077773012
151848,091530293
205808,651093006
261876,644976437
288619,827236984
265718,669366062
191200,424098372
83870,2670525312
-25167,7331220508
-109166,673988521
-155426,995468974
-167588,931336164
-162826,112937689
-160420,382989883
-164259,343948185
-163922,26457417
-162134,05308795
-173858,36674571
-199338,472584844
-225381,228778839
-242292,575184107
-252379,654037952
-266346,196496487
-292430,371752977
-330451,239237428
-372498,378288746
-409467,35088563
-429876,24762845
-394028,499247432
-275837,418358445
-138078,478108168
-57549,3949551582
-32325,5865616798
-16872,781052351
21135,6110579669
80861,1547092199
148293,520122528
226349,506443262
297168,533249021
308634,450653493
253836,91257441
184138,96391964
149209,374700308
164834,828638077
213659,430845022
272514,421642065
332785,056373119
374026,199484348
360716,062269449
295656,144280672
224506,885540873
186515,992105961
188076,038909435
209730,574277639
223808,65162611
209813,282447249
162711,287360907
92445,9188113213
17687,5151929855
-43535,2410321236
-82678,5437563928
-103885,080118656
-119497,456193924
-142911,945343018
-178545,834085941
-213201,068709552
-233082,561889648
-242300,623571157
-247592,525355816
-247058,335302353
-226995,353853494
-180037,195104122
-136636,612833977
-132699,185007334
-157628,156579494
-154294,118060946
-89314,2326139212
-2379,97855067253
60196,9575083256
95091,1381952763
114327,637354732
120892,960748672
108616,254051685
72300,6546502113
14558,262590766
-52045,9746740758
-98951,9772028923
-103742,810936451
-84796,1476550102
-70376,4209889174
-63261,3890703246
-56370,5167523623
-49246,4264411926
-49675,756516695
-59274,7155355215
-48176,3574126959
3010,85972136259
51400,9237521887
58973,7992955446
45094,7645814717
45977,6542571783
75060,3843164444
117194,774258196
145444,365207648
137925,898468375
87679,1524363756
5878,46413993835
-86435,3419730663
-168937,724419862
-227081,652598023
-256461,262480021
-257795,095327616
-224554,236216664
-167442,834495269
-126738,143403769
-121772,612184286
-135407,470678806
-146976,83365345
-150131,925492793
-148594,568921208
-140759,645981312
-130508,024409771
-140050,961126447
-177937,996682355
-223133,75254333
-248870,564963102
-244436,28988111
-221818,329397559
-187140,872984454
-122140,456548452
-42217,6247557402
-4331,66576826572
-21424,5810595155
-49905,2039950229
-46813,2747179866
-3064,55952012539
68850,8984277248
167099,368229747
268363,321262747
309858,549617678
271830,793986917
203381,971394598
162290,418871224
172720,445501924
219306,101533979
266978,783099897
281595,705300987
244428,456731677
161074,401763678
56369,3800977468
-38773,2437384129
-101395,795271397
-127642,11518538
-123606,795380831
-83279,6790659428
-15769,4692318439
31178,7924143672
29703,573343873
2700,19320106506
-14172,5903065205
-6021,42643332481
16489,9885526598
28919,6499694586
8667,36057591438
-44709,1584532261
-103780,621349573
-146456,492239699
-175647,554905057
-191949,432061315
-186640,196629286
-160088,752830744
-127959,087542746
-113224,079410315
-129279,421112299
-156505,652061939
-150047,030981123
-104709,061446838
-61858,4100269675
-38371,4421172738
-13456,2207995057
29787,8101300001
84137,3054955006
125246,288982749
128165,313715845
84951,5710231364
13360,7885212302
-45355,8642235398
-46353,1207157671
8101,39701628685
71413,4340516329
120937,87666285
165293,350944877
210015,555679798
248618,076373398
266413,615972996
262106,410990477
263988,440137863
281413,129941225
278743,441725731
243450,008520365
209696,779101849
209441,529970169
244046,961520791
290483,185577512
319688,151196718
312211,456343174
264156,144950151
184245,65944171
89890,6397783607
1392,77255940437
-66734,1167430878
-110446,39004612
-135190,710083008
-151323,951315045
-166048,123497486
-181151,371182919
-198102,418312073
-219404,424028397
-247303,845815361
-275529,896242619
-276671,556112528
-241843,120135307
-211132,721713781
-209724,579458594
-216649,043549776
-204111,872039318
-164488,847115994
-115374,970945358
-74004,6336301565
-28604,9472347498
17769,8981676102
22679,2405803204
-23708,4832925797
-77872,5168771744
-93829,9426691532
-57712,742620945
13527,5232465267
106566,741724968
201142,526088238
245900,731874228
215925,110545084
144595,863074064
81580,0193901062
56905,1222681999
70098,4724698067
111712,82032156
187536,40552181
277631,314506531
323460,121860027
306675,486547709
269454,224713564
257505,101251207
281442,991689801
319274,817042589
338806,386907101
315471,358351707
245329,076218102
145392,038919687
42636,47905159
-35091,6306893826
-71804,2360444069
-73083,6071560588
-60553,9117554426
-59515,7917504311
-84770,2754747868
-132940,081412315
-190976,756991897
-246380,033314943
-288624,234704256
-309070,16361022
-297617,926096439
-256908,666542053
-218974,540549278
-214496,526564121
-230504,789481878
-213440,59275353
-142440,21398437
-63564,971742034
-14152,9016196728
12343,5527791977
32342,512157321
49827,9324751794
54428,9012441635
32401,621401906
-18394,192450285
-78202,2573570609
-117631,721688956
-112044,937621176
-61298,2983612418
-1374,33494144678
42330,8467208892
75554,0524969697
104406,281097233
123990,367266744
125059,029170766
105484,219412506
94066,4266051054
121892,542553425
160073,224417537
167037,474177361
154730,254121304
159060,262579918
194461,137857556
246264,338471696
286137,572145224
288958,385025978
244417,937806129
159788,008573294
55165,4784730673
-42964,6839486361
-114018,64479351
-153311,316324949
-168579,960134268
-173456,244748354
-176783,961126566
-167695,733618736
-139829,049754381
-118171,108563185
-122768,079914331
-144416,622067928
-165802,620698452
-180130,984518051
-194090,019194126
-216736,956369877
-249867,777400196
-289003,236123085
-327120,616280556
-359312,72733593
-383176,59441781
-383321,456008852
-349861,959593534
-313871,405853271
-307734,818431854
-325147,68276751
-341998,403927028
-340968,500685811
-319113,245488882
-260108,339315176
-141149,672720075
-7812,22069074214
61029,8987768888
59773,3477551937
42477,2448205948
53990,6995191574
102081,311620116
164676,251362324
219700,584103346
250992,75929141
234673,660634756
165425,33668375
75432,2154385149
6775,86701750755
-18822,1531076431
-8082,43427038193
17589,9365671873
42810,0267762356
56732,5161670446
42697,6581087112
-3179,42114138603
-59756,4996070862
-101296,010248274
-117923,443413734
-118623,295303822
-122634,026845932
-144897,060398579
-186571,918636143
-239680,408913851
-293178,667097092
-335457,445350885
-360021,9756639
-369478,528188646
-374549,310115695
-389405,828993797
-421806,581797361
-459850,660584211
-466897,45832634
-426477,060963452
-374226,937024832
-340078,573961973
-316519,239699602
-290163,921764851
-261102,485709071
-242555,110818505
-250989,493506908
-292729,536498547
-358218,936234474
-423497,781258285
-448685,520289063
-415411,704108357
-359121,865020752
-315585,433678553
-286463,885661244
-264889,372503519
-249870,408895135
-244873,635297894
-254665,583913863
-274770,189631462
-284374,253018856
-278394,435287476
-279828,923230276
-296126,51319778
-308793,523203373
-302047,435385346
-278437,226645291
-252840,203490034
-240766,112887502
-253502,129087806
-294130,841686964
-355795,413514137
-423299,309117258
-479973,474840641
-516688,070888519
-533622,473430872
-538436,517846823
-541391,697478294
-547887,521444678
-559919,527430296
-578374,721450567
-600558,748460054
-622815,659718379
-643462,634954095
-662988,440249205
-683783,90879488
-705860,922591209
-724591,97227782
-734589,130400717
-733671,123439074
-725069,050407529
-715844,583711505
-711735,035560161
-715394,179012775
-728074,659068823
-748897,403285503
-773545,518397212
-794284,495314837
-803347,130142651
-799133,792405307
-786940,386313081
-775631,37586391
-772256,459306359
-777519,169265062
-789518,48960638
-805861,585447311
-821802,610541701
-832647,737025023
-835910,47410354
-824340,860448062
-785651,457462788
-729598,051344573
-685964,21834451
-663979,996934146
-650039,146632493
-632341,016462505
-609906,011535764
-588990,597107887
-577965,779423535
-584394,232804401
-609252,961604089
-644807,260400951
-679153,968137324
-700521,842884291
-703949,15423584
-694249,952917159
-680745,420248032
-672292,95344758
-673118,339281857
-682303,126409799
-696788,071601689
-711350,342971504
-720441,845502853
-721190,611043006
-714847,910934389
-707761,790785611
-706415,101078868
-711461,124090552
-718174,995673805
-721969,880790852
-722300,417664051
-720903,228678554
-719551,498377442
-719444,907449707
-721196,157460213
-725554,354461432
-732512,169473469
-739751,856737912
-744669,144176185
-746446,107236527
-744959,35319984
-741329,75576365
-738442,482723147
-738286,550819144
-741297,98072958
-747288,142849743
-754848,383615732
-761565,659639359
-764743,081919819
-763385,062003322
-759713,133200008
-756530,609147377
-755110,990739325
-755797,876770422
-757306,950477898
-757806,714553952
-758155,227957666
-758677,740991771
-757365,578900486
-754912,280812576
-754527,526776381
-757236,565601066
-759629,977791429
-757864,518276557
-752736,174382269
-746562,195901215
-741108,296016097
-738603,348640263
-738853,814118564
-740398,815851688
-742793,233845726
-744099,550319165
-741974,750720471
-736066,962904125
-728419,203295887
-722778,720637709
-722096,456927881
-725990,563800186
-729156,867438778
-726280,690426081
-718602,006199688
-710108,610502064
-702710,879549861
-697624,533537388
-695448,393091232
-695738,156521976
-696642,739609525
-694601,595995545
-687099,13710326
-675372,889426738
-664694,600825042
-660200,740380913
-661465,770204231
-664468,615579844
-666340,748497486
-664739,615615904
-658209,949750304
-648708,736760646
-638642,424096584
-629612,877766401
-624524,415032834
-625320,082986847
-629778,668285176
-632213,818125993
-628287,27334255
-618902,961019665
-608816,97896561
-601926,682728231
-598502,051111907
-597144,258867621
-597816,914865151
-600487,846110396
-601542,95657821
-596527,566887021
-585859,343029767
-574293,885190606
-567317,960341156
-566600,258950084
-567332,049892992
-565478,73343955
-562028,513449006
-557669,567350119
-552249,352566741
-545834,059753805
-539662,230923042
-538407,812546074
-544672,411177874
-553764,963749617
-559266,901609063
-559770,349451765
-557795,68980594
-556508,701530166
-558629,972744741
-565393,463175982
-575947,41815114
-587838,181665942
-599505,129367143
-611051,134762049
-621521,920481682
-629620,56984973
-635992,713984773
-642718,78113094
-651484,414333239
-661568,076659784
-670544,780348852
-676796,418850675
-680523,310353279
-682886,927996129
-684125,753738642
-684229,093443334
-685197,636228636
-689842,227283344
-698296,98381421
-706572,733184516
-710446,560247272
-710320,921459228
-709600,067856848
-710890,653222948
-715179,261940897
-721732,256378591
-729327,562562376
-737706,517468274
-745316,880847797
-749126,675452083
-748687,215246066
-746921,12165764
-747854,597895145
-753023,649381071
-759832,235969394
-765874,837563455
-770796,25718227
-773545,679708883
-773326,404540092
-771634,195786998
-770585,136181876
-771851,191035628
-776795,934117377
-784985,156897992
-792429,526872724
-793890,946011782
-789081,286408961
-782641,172354013
-778579,956791043
-778631,051884815
-781895,636967286
-786182,737730846
-791118,622447938
-794898,12744835
-793713,017763644
-788306,665712148
-783020,977110237
-781114,199178979
-784134,512008205
-790921,028508261
-797813,427735642
-800968,987918973
-799294,28698954
-794539,269911408
-788033,001392931
-782203,257777631
-780655,379025161
-783179,315029711
-786958,115339354
-789562,777595788
-788375,947221756
-782558,290805399
-775014,21950227
-769257,480751753
-766318,273750901
-765916,097907931
-768389,892473355
-772772,675058633
-774412,570110455
-769457,58880119
-759571,899626434
-749386,158098578
-743003,450337172
-742251,527986616
-745212,90984872
-748687,124698713
-750480,18641907
-748492,554270431
-742935,032797843
-735921,216359645
-728196,318231463
-721479,871354729
-718755,680306166
-719498,334791601
-718714,592560411
-712609,930331513
-703293,176624462
-694889,891009942
-688842,177429304
-685290,118089497
-683838,311319172
-683341,507832021
-683328,357891977
-683086,01063478
-680477,712520197
-674727,802533031
-667565,57574138
-660848,232011899
-656386,957867891
-655114,690195605
-656148,921531752
-657790,57401821
-658128,843815833
-655727,162202269
-649216,354371607
-639380,122849941
-630690,436442181
-627587,666452155
-629373,109750003
-630048,977507502
-625753,779433787
-617919,932009727
-609163,458734423
-602087,660671741
-598244,685807377
-596614,990716413
-596306,746104762
-596477,443072468
-594090,985303611
-587083,475905403
-576705,435855016
-566161,542399749
-559381,903130457
-557621,924125791
-558077,630751416
-557863,426617265
-556363,128335685
-553322,529577345
-548432,456957117
-541398,007434607
-532473,853885353
-524848,766561419
-522261,056524754
-523872,214236468
-523724,913318887
-517455,436717167
-506825,01648052
-496044,944974616
-488018,139248982
-483376,877361491
-481536,39036008
-481377,681971803
-481776,557456866
-480773,507979617
-475064,569986969
-465004,636554241
-455228,845895857
-449767,779623136
-449059,316474676
-450752,127209969
-452712,922682665
-452117,025768563
-447008,599315256
-439016,602896273
-428974,776787728
-417667,363252118
-409796,631304637
-408807,793890923
-412360,667006046
-414128,761112474
-409649,440096941
-400818,887458682
-391577,515168965
-383825,890401065
-378324,47919789
-375166,81132549
-374346,763611682
-375294,835054642
-374673,320629973
-368796,513704618
-358144,686867684
-346512,828042984
-338590,962217718
-336766,759153903
-339024,505824327
-342002,331516415
-343298,529173627
-341386,751113107
-335679,796719545
-326677,271329448
-316629,482319489
-309738,253665
-309052,084870398
-311633,987477511
-310417,806851968
-302527,567619465
-291285,636052582
-281234,795276918
-274964,203292697
-271543,325451262
-269091,897682473
-267769,917476475
-267466,148712799
-266635,56641297
-264371,590877399
-261370,419873267
-257168,304150939
-251062,505778365
-245358,843491729
-242370,726480303
-242776,163389888
-245872,95859541
-248605,329054832
-247906,168682054
-242692,319625244
-233957,350786626
-225406,653383091
-220980,487537123
-221094,203090729
-222742,652491553
-221624,86671054
-216135,79029878
-209843,469507277
-205824,31569916
-203573,794148877
-204301,06513299
-210320,154050432
-220049,170109332
-228290,917619038
-231041,676397245
-228279,334318683
-222477,826421596
-218558,330119364
-219955,71926976
-224311,953226171
-228298,121598553
-231832,576701302
-235541,929654919
-238102,597128723
-238271,919182569
-236757,854984358
-236263,049165204
-239668,452394605
-245411,748035043
-249002,03266678
-249261,894943587
-249180,68618964
-251781,153739326
-256381,33269633
-260004,281733163
-261634,552610785
-263384,755259991
-267258,133751079
-272167,115649715
-273587,266876459
-258960,275634035
-221265,599073872
-179133,380549088
-152957,172673881
-140314,211560087
-128651,068291102
-112110,707678096
-94647,9977274174
-82609,7791861864
-79105,9283995042
-84947,7461648068
-98749,058400318
-116313,450892281
-132601,486254036
-144451,82225953
-150817,259392768
-151666,446687713
-149393,417584151
-145010,399261983
-127214,735126995
-88449,5508358181
-49078,625761196
-29643,6904304028
-23121,8048592098
-12419,8794649094
9099,03564314544
35540,0159212649
55088,1760671679
57952,7805272043
43823,4855940342
19772,5298563838
-7626,4580591023
-31838,2454207502
-45362,2570774853
-45900,2886506915
-37877,2001223564
-28731,5395083129
-25973,6583627909
-33151,9018139839
-46699,2310084105
-58981,7967680693
-65334,0500622988
-66144,2341408655
-64685,5419394374
-64860,7062956691
-69529,5832012296
-80369,0108389854
-95369,9558026642
-107163,339185506
-110115,832253456
-101548,901801884
-69795,9812017679
-14148,3614746407
35888,7292302847
60684,1752120256
69856,6295288205
78709,2925047278
95726,0234146491
119665,282630831
141941,45931977
152222,517538667
143064,992219985
115070,547824293
78226,8635858595
45276,487629652
25441,2744705081
21727,6675363183
29174,2820149064
39688,9071856663
47518,4569056034
49032,7675088644
42105,5393007994
26812,7555626631
8081,62505298853
-5587,68769827485
-10328,6443899274
-9332,34399533272
-8671,39662450552
-12771,0980187058
-14910,0247722268
5947,74011969566
53306,1206144094
99664,9538266659
128723,393929631
148479,60687317
168507,768528402
189627,103478491
204451,229166865
205132,570295632
191690,676673025
170594,083872139
147879,777498484
127866,241117239
114161,552124381
108599,69951582
108883,714625299
109423,975317657
105489,119875014
96435,2898828089
84618,7636703253
73322,5526029468
65675,8505315781
60416,3158660531
54432,8144116998
47699,3857485354
39855,2470558286
29276,8875898719
16281,3266954422
3761,59937980771
-4718,1864489913
-5036,89409887791
15646,5787069201
62114,6669011116
108896,314572573
133692,679716796
142936,089246094
152275,716882408
169199,101467431
190521,567614969
207708,137521654
211699,772608638
196679,073647082
164542,727633119
125929,287199765
94810,7355574965
78868,3752039671
76662,3480163813
82303,7232177258
88890,0935887992
91615,2080116272
88932,9602723122
79987,8115186691
66156,8575918674
52649,7470996976
42778,3660248071
35785,4450529814
29038,7638915777
19434,4292576909
6341,32255351543
-7227,12779542804
-16637,3637294173
-19441,4869559407
-17806,655652225
-15228,2455576062
-13784,7236505225
-16401,3185167909
-25307,1729258299
-39132,9099804759
-54908,2385040522
-67649,2987501472
-72303,3575049937
-70186,2528695464
-66919,5122399926
-66724,1037647724
-71203,8783026636
-78888,2562070936
-87480,8446128964
-96776,2357330918
-106897,195875764
-115196,785844415
-118565,349669421
-118964,510037571
-114152,113063633
-86745,0339693129
-34322,8751182258
14244,3191702785
41648,5319785774
58498,9327553511
77713,7933247685
101474,987946928
123755,232909393
135362,084722251
129069,236279547
105784,764514804
73942,5994877219
42948,9682390466
20019,8883206248
9431,40462058783
11452,1164476871
27237,6190725565
68282,485170722
131345,581065476
181568,476627529
200361,623242021
204174,683191001
213441,451066583
234591,57415618
258776,655659318
272068,52126354
266310,425984502
242177,711172566
207156,027014017
171452,413866818
145004,127562881
133898,124831557
136201,401162013
143563,058511376
146793,259364188
141059,64826411
128069,88446939
112924,104752596
99896,6867895722
89481,398329854
80193,0022628903
73539,2784628868
70719,3951030672
67096,8662006855
58350,635489285
46371,5535436273
34811,978179276
26297,2794641107
21288,8205289245
16925,5794321895
10351,0610161424
1374,02441933751
-7534,80650469661
-14529,8568747044
-21248,4465458989
-29084,5021054745
-31491,0181333274
-8187,1855353117
46757,8102886081
101605,729893923
132023,40015322
149260,538593814
171101,683549017
200449,03479284
227304,031722307
239321,263883561
230733,968202323
204214,71863246
167044,281704128
128989,015610397
101183,271736972
89513,6937399507
90782,0962793231
97004,3483272195
99564,6211018264
94066,9528558254
82368,0474646688
68171,9362393022
54551,7525620461
43453,0008049011
35374,7960045487
29223,8224325776
21732,3021221161
10885,1289020181
-1203,99209308624
-11259,3635596931
-16688,1068552732
-16697,1154098511
-14551,9148874879
-14942,5721694827
-20419,961544998
-30897,7355905175
-44773,9893907309
-60166,2945289612
-74924,8412794471
-86813,152918946
-92699,2099818587
-90887,9390580654
-85640,9338123202
-84254,9975388348
-90010,3570856676
-101225,397685885
-114543,101051748
-126777,850325882
-134100,213658214
-121055,215344384
-75038,299032867
-18210,9817682207
19357,7067986727
37049,1631230414
51335,2610011697
72398,0402314551
97228,9691537917
115000,930503264
115078,359175161
94863,9252847955
61125,2184157223
25345,5709818304
-1687,69385681488
-15866,9971550405
-17914,0017862022
-10545,4274590313
-531,444903582335
4892,78676319122
2641,81301027536
-6012,27554526925
-18708,5578120649
-33076,0991916209
-45699,8519082665
-55647,5189740658
-63613,336229682
-68759,1857513785
-72240,8582476079
-76640,0805609506
-81885,8407056034
-87073,3290994167
-91158,2923381031
-92309,730060637
-91886,5328989066
-86012,5040326715
-56033,6117087007
-1776,6633464694
45308,3193830848
70047,1078592166
86684,1390992254
110888,440124393
145892,755688787
188306,712066889
238923,573410809
285691,36552313
301021,533610556
281412,573318586
252410,815002143
239874,309657574
254130,296433002
286338,591971293
317975,241436243
332485,524786949
320840,228971004
285520,495816469
238782,78095001
197009,703795955
173310,376216948
168731,526434302
174087,530709028
179240,178046882
178041,081218004
168974,195284724
153279,202850223
134855,909064174
120115,9172858
112473,980025887
109443,866256744
105879,135698318
96470,9325900078
79778,8126400709
60074,5048837662
42363,8348715007
30725,9716262817
27588,0201159716
30945,9504591227
36300,0887987018
38200,0122017264
31218,6895388961
14553,308799386
-6810,00200629234
-25450,0972318649
-36385,5374962762
-39895,5754271746
-38876,7290570736
-36332,7735112906
-34877,6218762994
-36404,211100135
-42684,9642595053
-54942,4411169291
-71312,5295850635
-86895,922395885
-97225,8149388656
-100646,14439407
-99849,4053499699
-99930,5551090837
-103565,789858192
-110667,880368173
-120143,073120445
-130516,222539961
-135674,337186396
-113686,139658034
-54974,8791936934
8019,6432103063
46286,5386756659
65806,2006933093
85964,2018672228
116920,385050952
150724,389206663
172302,986800998
171529,052917197
146700,502797
106435,782986328
64346,3077088892
30615,9309163094
11912,6918540001
11443,1502794325
23976,5127019286
38478,2710102201
45505,658544153
40956,2087235451
27146,5625882149
9495,59047412872
-7277,47660915367
-21097,8514162898
-31097,7274565697
-36148,156318903
-38439,7271209955
-42523,2928394675
-49655,7288812995
-57399,9889582396
-62130,2762560844
-61973,2973928452
-59727,110109508
-60995,4672034085
-69346,9258731604
-83688,2476668358
-99853,7110873461
-113823,093745768
-122906,051440112
-125291,619716942
-120640,088051975
-105124,777739346
-57781,1508823633
25606,462006405
101590,135829002
139218,615445495
154483,182626188
175005,64037773
212405,066372923
258304,552276969
294506,001713872
304391,56901598
281866,422787666
234934,582946479
179694,986089077
133127,811746538
107982,641165257
106116,489365458
118257,465147495
132395,791342571
140408,377488434
138840,006118655
126588,176494718
105963,867791772
84802,7508945465
69677,003189981
60686,7577550411
54465,5814181566
46280,7791345119
34081,7495430112
21053,168767646
10828,8192430735
5140,4892731905
4174,62501215935
5777,2821366787
7394,9780100598
5566,78281849623
-4006,66491258144
-20901,2858413458
-39597,4885933399
-53294,1551896185
-57765,2946639657
-54665,512275219
-48969,3329685926
-44635,6124307513
-44486,7141197324
-50171,7839257717
-61946,2325316668
-78896,6341546774
-97055,032546401
-111391,06015712
-117470,960644186
-103171,316624999
-62317,6710441709
-16738,9498929977
10061,9110122025
19480,4765559733
24451,5521755219
32618,2562445998
43636,8803902864
53489,9582648575
55683,7094783708
44059,1366618276
19304,9999216795
-8700,48734563589
-28095,8498024344
-34440,3565910906
-31147,5400459766
-25759,6417229176
-24407,0880867839
-27700,9112347364
-33621,3986610286
-41927,6211364269
-53352,7297739387
-65071,0445617437
-72936,3532191515
-76997,927123569
-79474,1178923547
-82985,4595664144
-90108,9018509984
-99432,1859620214
-107308,889263511
-112529,666643083
-115932,53582871
-118068,688326895
-118763,784326449
-119197,62941017
-122405,559296012
-129939,60374102
-139938,384151042
-148835,970266819
-153392,638822041
-153853,892000332
-147393,26953876
-110912,24129802
-34994,9963157326
41050,5907136216
84674,7576702088
106105,882011026
129109,604770035
165907,21927081
211741,333776191
261012,308477402
305611,205865085
322862,633349538
303783,815804005
268954,548991948
246258,009404361
250197,888381958
276249,703516185
309209,032442331
331693,300406232
330709,275977492
304824,755578637
264223,304959059
224381,999385178
197960,359214395
187947,791200638
188646,068992257
191950,089182377
190698,197488785
181429,368057534
166287,11515969
149453,664522886
134948,21899724
126431,972562551
123489,799254358
121230,957642138
114282,491986513
99908,2560783625
79944,2767534256
59506,8726365864
43716,8202179074
35637,327188611
35758,2484880686
41755,7855961323
47686,3825798035
45806,7856869698
32595,4575065374
12443,4066921473
-6858,85045516491
-19935,1774104238
-25474,7672312856
-25821,0811780691
-23986,6209150553
-21535,11342448
-20562,7670652568
-24869,3932947814
-36628,6247662902
-53346,5979470015
-69709,8235962987
-79319,1022013128
-70875,3430814594
-40490,5582168102
-6328,6809732914
13631,505656004
20467,3879573941
24091,8148263022
30865,5651031137
39996,7909030318
55821,0388994515
98405,2877263725
165601,994876683
217082,738100857
235028,721701473
241458,118668005
260903,459234811
300042,904489191
345119,48105641
375163,633829504
376603,765082419
347357,94263643
297160,349118352
242326,203081787
198377,335105434
176125,4500857
176378,725019038
190204,281300902
204260,405635715
207296,608425915
197797,453749537
181003,017574668
161183,824659228
142079,827900529
126729,121907339
115782,079090834
107633,34708786
98104,6413425207
84854,335878253
69913,4992130846
57227,6447550654
50910,0465734005
51258,7283966541
53922,2647951841
53816,399232883
46771,8291236758
31844,705078721
11715,7556120157
-10092,9530009627
-27670,6892440729
-34723,3538550138
-31280,1102781296
-16128,3305126429
20955,9068216681
73494,9220276773
111692,844874918
123122,986264229
122724,624932647
128465,267125249
147385,653989583
173852,764717042
193905,80660522
194171,403479338
171133,620808721
132432,389422953
92289,0578039289
63327,7036967874
49573,3186203241
47928,9579765797
52087,2359747291
55504,6030068099
54056,292619586
46553,1916900873
35336,8012573719
23901,6889508963
14581,380032897
8029,00456690788
982,852849245071
-10039,0169764757
-23133,4351141453
-33993,9506316781
-41775,5543646812
-47600,9808039069
-51115,725762248
-53000,2700787783
-54531,5467309356
-56204,6655566618
-61520,7504776716
-73832,6746897697
-89652,3636555672
-102245,036083519
-108488,146083944
-109501,765556753
-108011,955889404
-106879,343748927
-107940,532371104
-111253,786259815
-116530,791116059
-124332,349190772
-134227,151444912
-143773,265687466
-151291,579119623
-156144,985898867
-158675,119831383
-160716,582371771
-162793,313592017
-164960,298588991
-169007,709209241
-176285,581725568
-185861,877623558
-190399,962574303
-162817,001057506
-88200,8104043156
-5739,70609267056
45182,6713583171
72958,4501311481
103355,588057965
147115,014113635
194405,053539477
227065,388736013
231673,875086688
204984,224957615
155333,124485731
99261,2128995508
54890,3733469546
34055,3800309598
36979,7848518491
54791,7161795497
73710,9740971923
82047,0931872129
77973,1262914538
64892,2969940901
45464,3179558516
24428,9168335199
7370,84236128628
-3141,94267553091
-7985,80154907703
-11679,6229945421
-18477,586922884
-28457,394983694
-37850,4969470501
-41875,7908207178
-40213,8072580099
-37727,8640829921
-39436,5127719939
-47339,6779255271
-60640,0679676533
-77478,036303401
-95757,3863594532
-111207,728975121
-117773,578398347
-113225,195578754
-90201,0664750338
-30063,1185501218
56107,6366246492
122410,140887558
151080,129813552
163958,055123389
185376,539727569
222038,984883808
263046,583481967
290357,608739138
289115,220009685
256564,265118599
203810,617036402
149866,617231458
112398,66228354
97956,7525990009
101522,183206439
113269,670279264
123872,86666131
128110,259664297
123645,24333322
109696,04038167
90837,283654809
74766,4172213078
64668,2577886581
58607,7954828739
51788,256590724
40485,9649969339
27264,2709104121
17012,8124893904
11169,0987205505
8957,15296781063
8912,73125994205
9323,44263410568
8029,01549723744
1131,99919307232
-14821,2612125874
-36925,8179807663
-56178,365839839
-65721,6934577227
-65161,908572197
-58937,9837169647
-52717,8405339718
-49542,2247560024
-50171,6919575259
-56084,0511273742
-68865,0153390765
-86483,9499006271
-103188,593700111
-114984,134438515
-120985,131739289
-121517,573667943
-119574,688381791
-119279,982716858
-123013,182858378
-130448,716368943
-139677,40724504
-149460,111691177
-146655,202409089
-94953,8452266455
9401,41577419639
107948,267337799
163898,855400741
197166,886015803
236588,562239736
290802,005527169
346085,222647667
380116,900162369
377874,822170228
338644,737802863
274864,42861928
206281,355058972
153981,591951132
131708,465016067
138786,57012403
163097,526985347
187749,299334448
198638,833296657
191918,183257759
172293,231554031
145783,9388569
118891,116909385
97692,929663837
84370,0985565186
78137,7453448772
74929,8951113224
68819,6370245218
58433,5152303874
48231,653703928
43090,772767067
43046,5836257935
44315,1566595435
42561,6820671856
33315,2306058407
15696,0698412657
-5484,50663471222
-26017,9674991369
-42656,6940447092
-49754,8303178549
-45429,9879508018
-34954,2300018072
-26766,2502359152
-28090,5191392489
-40544,3264403939
-60492,0411912203
-82527,9960941076
-100442,120928884
-109722,852657244
-105629,201161593
-72102,6035865545
-6278,83168083429
56867,0199180841
89749,9410641342
100685,716563314
109876,886945069
128775,954213619
153100,408916891
170831,53225781
172351,745410472
153718,807387352
119149,633101881
78849,0084964037
44779,6321121901
27554,4426628053
29410,8696348667
42530,7353442907
55097,9104014635
57174,214572221
47351,3744458258
32286,023206532
16772,9987891912
1957,97438764572
-9506,25965258479
-16262,5319617987
-20111,7115166783
-23978,8954882622
-31814,5273869634
-44451,9312235117
-56656,210336864
-62079,5328418016
-60338,9323838949
-56916,0922586918
-56295,6092032939
-59799,4511077106
-67955,2517576814
-79961,3120983839
-94013,9787345529
-107877,427102327
-118378,541643769
-122946,743009537
-121162,704884112
-117060,462894708
-116769,880325437
-122022,03881757
-131166,706569582
-143143,627464294
-156430,046114326
-167798,484313905
-173372,068962771
-155245,398680449
-79865,4159204662
41071,7996460795
142941,51764062
197309,115214881
231139,404061049
274972,578870103
333850,435807711
390430,868376285
422420,96866858
414218,639685273
365595,022988021
292888,767559946
220906,69540086
172833,525069535
158119,359221816
170447,171567142
195158,665452182
215250,919819221
219028,096468985
205068,677269101
179969,889674664
152817,824720383
131296,962860972
119741,058214307
114945,383932829
108085,606456757
95547,441408515
79464,6824627519
63117,4588721991
52078,7443994284
48844,6241748333
50336,7051516771
61818,6063398123
95721,2558857203
140744,936400414
168053,604766965
171900,070579529
169774,878377736
180083,904082492
208228,700765133
243140,687053919
267325,643236995
266363,861916304
236429,613235265
187438,896678805
136471,582532525
98824,7977100611
81510,9454579353
87117,788333118
129193,298280656
208035,475878119
282551,201677918
320164,597224951
330487,124236465
336329,099219486
350895,925069988
371727,791756272
386238,58603847
383263,585058987
357888,518238164
314118,508761644
264231,23658812
222745,718293905
202343,60576576
205794,570833962
222721,612113655
237650,488418341
237605,469821751
219251,287575692
189077,97504887
155620,140213907
127577,280211926
112278,883324564
110082,399118602
115492,818471089
119341,642163336
111050,318376541
88967,9201945662
63908,2377393991
47755,637024492
42586,2717036009
42619,7227686644
42186,7106955647
37812,6463184133
28206,7691530883
14171,1911448836
-3571,90265166759
-22758,2884656191
-37775,2125891
-45462,6027260125
-48541,914960444
-50660,2835808992
-54732,3691935241
-62833,2389449291
-74922,6907778382
-90999,7095467448
-109506,344058543
-125525,67355296
-135162,140619194
-130077,240118496
-89042,1125701964
-14592,1230674088
49904,0668135062
79697,7880729958
91903,1185183823
111256,825374395
145406,184301637
184708,350698695
212840,573258668
214264,729922473
184342,068611979
132461,1086016
76612,4136292785
36096,5405853093
20769,6755589247
27766,0195196867
45965,1027574837
60580,0507602543
61407,3944898546
47756,1852167845
25396,7449936271
2390,36587315798
-15016,2354689687
-23636,089748472
-25640,8642489314
-30050,7277274132
-43296,590791285
-62765,9143103957
-80839,6652483046
-90460,9940122962
-90781,5683288574
-83821,9846132994
-61874,3154214621
-23674,817886591
7303,36919492483
13932,9521178007
6158,65240317583
3092,94607561827
15637,5796774328
44864,7918125391
94946,464746356
159732,587337255
205820,327271283
213972,607059181
201498,040920496
192710,086629391
200498,914662957
223216,934726834
249188,972110838
264975,852649331
258791,312285662
226347,107039094
178186,100730419
132502,04613623
102332,966769129
91158,1837954521
92443,0108801126
97472,6806710958
101097,293011308
96674,6784240603
79983,3051269054
55432,0222396851
31527,6761415005
15995,6356979012
11389,9509184659
12746,5085179806
12078,7752845287
2236,84036338329
-18435,7035157084
-43085,0447243154
-64019,1484645605
-76576,0439403057
-78521,0673311949
-72936,2110514045
-65336,3144090474
-63538,2500544786
-77085,0136299133
-105033,117593408
-133196,693575084
-147983,436743043
-147021,001777053
-136952,300831378
-126481,989927769
-121465,338051528
-124466,503007576
-136241,684871376
-154609,647575915
-175048,292064428
-192747,444088578
-203365,337001473
-205628,281210691
-204341,458322108
-205527,265692711
-210115,944696575
-217451,477703854
-228680,785690054
-243533,186358392
-258374,926861733
-265732,460501552
-241204,644440949
-164592,790750906
-69370,4285902008
-5305,8911418952
24496,5937372074
48446,1329515725
87202,4209402204
137551,991399199
180856,771249622
198164,824523091
179532,897918224
130185,668665245
67214,8372444361
10429,5778797567
-23410,8775186539
-27548,1537214518
-9166,69470915198
16410,8963645995
33301,9649217427
32915,9817068577
17489,1515183449
-7149,86599856615
-34703,148825258
-57535,7195693851
-71388,355561614
-75950,7073200941
-75903,5347012281
-80191,839761734
-92035,1578587145
-106384,689011753
-115978,43522048
-117788,774156332
-115279,116057992
-113104,975936919
-115751,52944994
-127511,660746694
-147033,714460135
-168498,397566557
-186076,088332683
-193993,287458837
-190393,337913156
-177583,917392373
-145891,979568779
-89803,163803786
-37427,3466137052
-14110,4541623592
-11408,13164711
-7624,45286905766
11119,9709357917
42674,7568931282
74548,718075037
92104,5063995123
83523,0713059902
49112,843277812
2345,68598190323
-39852,6619777083
-65182,3412644863
-71381,3400365114
-64192,3282182217
-51266,7808965743
-41571,7166050971
-42018,9624876976
-52824,2162351608
-69964,9847099781
-87019,8375516534
-97801,6888016462
-101798,15647006
-102861,009782076
-106464,350184917
-116810,248924732
-131956,822793268
-147585,69664067
-160200,394254804
-164938,980339289
-160739,993270636
-152824,269884195
-148563,150306284
-155744,814066291
-176243,580121636
-202462,720237315
-223677,057398543
-232648,991827905
-229604,748495519
-216013,477308929
-181310,987329662
-124319,108071819
-74129,2846565247
-51855,2590264678
-46819,548317194
-38178,4813140035
-15829,797067374
13511,7771759182
34681,4469866753
37137,2238684893
20561,2201895714
-8755,26998507977
-42270,400569085
-72111,0220917463
-92699,5434303284
-99658,9916899204
-93690,1079927683
-84063,3294697404
-79989,3827977479
-84438,3609468937
-97193,1881417036
-115593,608802617
-133681,88247034
-146841,610481888
-152691,89268595
-134728,104182482
-79516,3579576015
-14703,1407841444
25320,9423970783
41754,0466755033
56530,9797067642
86240,2881184816
127253,907829702
161203,787890345
170630,511397168
148521,454926014
101672,502402902
45602,9469599128
-2285,57855734229
-28503,4258728549
-29974,5251212716
-12750,66100052
11160,2430635691
26230,7235202789
23037,2385707498
3808,58329454064
-22049,45357682
-44878,9221451879
-60287,0255653262
-68284,1602713466
-71611,177051127
-75368,4401842654
-81653,2206202559
-89750,659717679
-100009,587409496
-109739,883888185
-114600,108462423
-114982,436506256
-115176,382650033
-121549,089734733
-136992,304079294
-156784,952684581
-174676,45052442
-185926,25584878
-187846,461966664
-176428,872811139
-127566,833466351
-29577,0593702197
69063,1430228688
120983,636782616
138433,723484814
158034,134132147
197635,180967599
249543,216556434
292099,139517844
303943,237941623
279346,89646697
229292,075131357
170974,780414939
120726,399230182
89959,1747146845
82403,8168860674
92171,7403306961
107131,425327122
115412,396752417
110722,446713924
95801,9457160234
75917,6566442251
54169,2563625574
35515,5739447922
23327,9753525257
16445,5080319643
10936,3422197104
21,9658433198929
-18239,4749056604
-35187,3453276753
-41098,8936259747
-35719,3553112745
-26851,1936662197
-22814,2374933511
-27613,1777722239
-41234,4862216711
-61672,6489063501
-85110,1835879087
-106208,537228912
-120115,679495871
-124496,421577573
-121159,667958021
-114612,004511178
-109661,950885788
-111655,457633883
-123323,429044843
-143044,585387468
-166750,351907969
-187907,757710069
-199754,203168631
-188688,364349484
-136024,753614783
-57175,8968000412
2956,23864662647
29578,7048573643
42223,972371906
60524,4185830951
88777,0062365234
117717,038015433
134663,065589517
129188,780965984
98851,8688214421
52977,3830275536
6261,81232409924
-27194,136913985
-38001,8439640403
-28487,1214343905
-10856,49892205
1665,71540814638
1366,46722894907
-11196,5094950199
-31933,0718131661
-55915,186997056
-75821,7616984993
-85921,3615016639
-86039,2233012319
-82759,9780405164
-85428,262190938
-96136,3375886679
-109394,749730319
-120816,010656118
-128994,17203027
-133419,571329892
-135294,742324531
-135926,473454624
-138139,911117017
-147440,680469871
-164739,156879663
-185418,738459796
-202013,349972486
-207142,354641348
-201163,874880433
-182993,50536412
-135521,147562236
-60921,7599480227
309,039065271616
25960,9936289191
34325,281119585
50970,3211856186
85458,7211331483
129157,846749187
163439,428753316
168893,216042042
138943,741170764
85441,4038441181
29665,1660092026
-9535,30696076155
-24632,6981868744
-19410,122345686
-3394,51002776623
11041,3417801484
13883,9765054584
3120,0940669775
-17298,8485611677
-39441,1605961323
-54274,1433742344
-60248,3378338814
-62734,237483263
-67406,5214729309
-77724,3273369074
-92343,1250691414
-107306,224430591
-119869,119164348
-126618,151909471
-125189,787925959
-118000,950512111
-112036,517522156
-116363,48951447
-133331,208216786
-154427,096250057
-169814,145800591
-176576,577881364
-176618,010813296
-172734,379066825
-167709,275301337
-164616,782849133
-166896,541728419
-176078,142829895
-190690,948369503
-207294,709064364
-222068,764036417
-231649,195810616
-235149,106032699
-235289,866672516
-234426,571114123
-233533,330489874
-234572,44496794
-240991,762084931
-253838,156507254
-268258,686070144
-277295,020457387
-261913,022596031
-193195,244704865
-87220,0550772846
-832,034168332815
46090,5151215196
77957,4353298545
119645,00646738
174290,87006665
225985,674411979
254121,439408153
243948,542777061
196267,783596188
128210,456907675
63577,6917978842
23145,656088233
14927,7213164568
32221,9182804823
59356,6952340305
79228,3414019607
82846,6257449985
69949,1840866804
44878,584903121
16667,3722965717
-5320,55112756044
-16528,7695400119
-19095,9644731283
-21643,6772891283
-31055,3172986507
-46654,5778061301
-62624,6067797542
-71534,5561052561
-71326,8803809881
-66222,9598444104
-61305,2617812604
-63444,4878140092
-77286,1205502748
-98845,0551109314
-121269,518450379
-139380,4601762
-148454,326087564
-147642,931384087
-139032,703731894
-115911,489075303
-75312,7237231731
-39120,0459617376
-27337,0796410441
-33021,3973207474
-36681,0770682096
-25779,8511276245
3738,78961525857
60960,2009506226
137226,164018273
191889,680362701
205234,107240319
196579,654202167
191564,835153759
203611,381637931
229263,40426898
255111,771103799
265677,587449744
249604,241661668
209549,774323702
160196,620758891
118082,712945163
95579,5257063918
94737,5626853704
107144,069752097
119361,336730599
119366,614226818
104698,564431086
81981,7463607788
58172,0975174904
38170,883900404
26173,7898104787
22444,6669474989
22997,6943817735
20122,8819634914
6114,93414223194
-16651,9782666564
-38860,8152907044
-54109,9754642844
-60330,5661360025
-59652,4347319603
-55333,8990875483
-51091,8609766662
-54138,9448690414
-69117,74261868
-91787,6780740023
-112334,511687338
-122747,332730163
-122056,170756638
-116019,933958292
-112330,894078076
-114730,109299749
-122473,615077859
-134243,018336505
-149112,422627389
-165132,059124172
-178588,424567282
-186428,847516328
-188729,257241085
-188274,175553828
-189308,023969114
-193965,568211138
-202427,496472202
-214995,722920731
-229765,80792433
-242799,739314705
-247591,362807125
-225225,147461742
-167185,668066636
-105685,509477303
-72034,9913104326
-59562,5325621665
-45295,6998297125
-17170,0701483786
18294,9130013362
46712,2283851579
55203,1634091735
37639,1574657634
-242,030364181846
-46331,1643798798
-87588,4557947665
-110761,124660969
-111002,489355832
-95407,897470206
-77179,846988678
-69268,5248651803
-75717,2688426375
-92332,9597312212
-113732,267644525
-133630,333549932
-146910,78178525
-152261,302567184
-152518,539826334
-154932,444942534
-163918,166765481
-177170,589078248
-190087,260398448
-197600,623264432
-197741,423987091
-193967,977555573
-191381,181310296
-195076,929499209
-207540,406252086
-226193,984258354
-245730,524537027
-258863,180162631
-260465,635695726
-246983,380620718
-197859,756983221
-105647,81181854
-16402,5691940372
31228,5961820483
50320,9902322292
69337,1621933579
103367,597191483
147724,345582234
185729,280328035
200607,058046699
182230,37070334
134395,048191428
74083,0512107313
21503,628564477
-7962,74463421106
-10891,24477005
3203,75170481205
20761,3313065767
30494,9978823066
26411,0964378119
9388,6879863739
-15113,5393894911
-38344,2060617805
-52458,6767829955
-55835,0512034893
-53727,7488845587
-55536,50213027
-67170,6417546868
-86052,1426860839
-105025,645159602
-116571,178690553
-117695,128391266
-111894,359482944
-104847,989354659
-104392,811843514
-116404,81123054
-137920,80467701
-160212,297967672
-174652,550378948
-177764,949613452
-172346,438572168
-164100,026144981
-159325,920858204
-161335,688308939
-170136,575069934
-185142,795848489
-204140,56567812
-223124,529482126
-238038,990635216
-245500,158625789
-244647,579152763
-240239,464133799
-239030,69594115
-242567,48673439
-249761,342449158
-261295,393701911
-275853,324700892
-288970,292720735
-293295,007224143
-261875,560838506
-175582,030723833
-75796,3309227824
-13246,9285674095
16588,3745172322
46586,7500597388
93035,9338427475
146651,686246455
188046,764807835
199462,60413307
173197,488581032
117651,444788218
51038,2536133826
-5930,49581998587
-35626,3410299122
-33495,1416674256
-9915,634529531
16647,861929208
28802,3104281127
20195,2450323105
-3102,39154106379
-29525,5918459892
-50402,5260733664
-62993,4007931501
-67891,5159454942
-69878,816198945
-75597,8579894304
-85785,271615386
-97689,8236866817
-108722,838857174
-114452,717554927
-112960,217307806
-107852,451130867
-104874,337980203
-109907,10892117
-124720,393618464
-144867,391165853
-164598,398492515
-177993,397831589
-180390,683940291
-167998,667919636
-117086,705787659
-8192,61473983526
113558,196275204
187403,766151518
216490,379003823
242030,871229768
288199,689788759
350317,880687661
406810,157286465
431925,55240345
412105,17312026
354595,661726594
281156,351834059
217994,454974502
183071,059063315
179868,535865545
199984,444001198
225568,952719748
240170,234301209
239809,275388718
227952,483003855
209986,86713171
192528,965910792
179884,495931737
173675,13285172
170056,585019588
160635,510521412
144915,81395185
130253,444716394
121101,96900928
119332,141839862
125232,735423565
134237,013626218
141252,335464835
142358,282736242
132382,619830847
111200,536375523
87472,0711624622
72598,5724323392
72044,5662935078
81866,4917668104
94442,9630303383
104310,762584805
108741,676880062
106248,210257463
96115,3861700296
80127,8144785166
63316,5394717455
50357,6616765857
43968,6404966861
45064,8701151013
50406,6900142431
55276,4001847506
57162,859588027
54284,2105363607
46127,2655926347
35458,9216368794
25126,6333360672
20521,8770921826
45260,6440705955
113321,80956725
189478,910568178
236861,186851144
261915,424912632
288942,655415237
329568,593571976
375644,865247905
408257,654715128
411065,173222616
380790,061010838
327812,777933076
270355,16378361
227386,072280273
209708,994480863
217130,661526725
238485,407635272
256528,615407087
261231,309003174
252642,549838603
234749,754806757
213598,082871616
195118,769882679
182403,55933056
175948,337281346
171854,148429275
164682,614668727
155005,808463544
146081,331465945
139357,172367275
137066,370103776
139316,130359352
141239,2193169
138579,298741315
129724,284440696
114808,161196589
96690,9639798999
79518,8109912276
68461,7693163399
67453,1485563517
79493,5435564518
123867,883258998
211020,115393996
299366,365213647
347487,637921184
364716,856262326
381261,572660506
415125,552711785
461344,876941881
501065,700920939
517028,884012461
499934,537128091
453422,869991899
393511,476916552
340333,314228818
309944,094241261
305555,327342987
317917,365968108
334447,019806683
343079,723399073
337606,199501157
320729,692617416
297138,430167079
272417,243976593
253650,482221514
243392,898244441
238291,900905728
231462,886653185
217410,724107742
198243,100816861
180623,314150691
169431,024168491
166424,136660933
169187,228415728
172875,618930638
172017,007372975
160645,111485243
138284,88043201
112231,502474666
92629,9485554099
86442,025755465
92196,1549491882
101890,046425223
108177,872122049
107670,562398195
99608,8371850848
84859,1525653005
65692,803198576
46278,4481588602
31242,7330054045
23418,6762766764
23087,8610329032
26603,2427566648
28793,6794250607
27870,5767065883
24098,1076083481
15600,0754908323
2147,42739462852
-11938,7974251509
-22308,8704785705
-13573,1042840034
38096,4109409004
118403,168881446
180803,685305893
210791,290443152
231691,160935372
264186,113404348
307042,319936771
345777,016447011
364514,163105391
352271,531441569
311155,335395724
255795,423648715
204622,805274956
173265,257357687
168321,465704292
184299,54390341
206921,205839336
220714,125791401
218702,654447705
202984,540063918
179459,672856629
156415,39155978
139775,465503253
131406,276937544
129892,329417586
127849,338608623
119057,591628313
106066,915367574
94570,7351194322
87762,5884276628
86267,4294171333
87353,8940571547
87066,2443199754
82459,7958709896
70533,3129078746
50974,6067656875
27993,13567698
9528,97067132592
3219,6929923892
9793,73252999783
36628,3188944459
99385,3931955099
179484,334641188
233419,390682705
252167,662523091
259814,260148168
278420,479804695
311422,764557913
347039,597021937
369455,299256623
364687,148661494
330774,637288332
280813,352442801
231930,765132226
197694,468112111
184878,944038153
190015,194539309
202749,444843888
212030,295602314
210192,572828352
196599,43923521
175484,841651082
153782,846025348
139203,524872452
133451,588799059
132676,362791061
130629,739474654
120657,794570565
103534,018308908
86302,0731269717
74145,9530867338
69403,0643097162
70736,2186229229
74252,0320504904
76299,5777317882
71379,8227090836
56046,3991334438
35208,3581576347
18243,0561491847
11104,4586272389
12763,1096324325
17991,916716218
21512,5608628988
20007,2247887254
12687,6020609103
110,669636785984
-16270,2118742466
-34101,4440224767
-49466,737018466
-57565,5299880654
-57799,8240577877
-55133,0654922128
-54221,2414874434
-56227,4060135484
-61096,7709836662
-69170,2731457949
-80467,4523968101
-93051,5048496127
-103591,213303447
-97534,1742907465
-42581,3861393929
58738,2927306592
148842,510737151
196428,881954163
225645,956291407
265877,328437656
322480,846405953
378493,147977374
409334,852562696
401083,452762485
357176,328020364
292774,697699785
228838,418738835
185059,587935656
171184,953856677
183359,28801024
206421,293858647
222624,810747031
223143,001676768
209185,17982918
186826,020151854
163787,068786979
145444,33030346
133998,250460893
127248,472769797
119138,082973003
107988,380149841
96293,3814792633
85592,8990373313
78547,1897643805
76672,2305481434
76648,9301204681
74916,5354950428
68654,8893254697
54489,7972330451
33102,2193803787
8943,01269161701
-11818,4168639779
-22526,0915546194
-20315,0192708969
2704,68350768089
54226,0728497505
112938,808110118
147713,811852306
156979,395513594
158984,594835997
168572,049715042
188358,736289442
210487,190941043
223563,841343701
217689,489984632
191269,991822362
151859,739724874
112361,23573637
86453,6257306933
79091,9145232439
84848,0826289654
92958,2534695268
93819,9398286045
86591,6502591968
75249,1003119946
60960,7051508427
45277,1459511518
32896,4538189769
26046,9769874811
22988,9823188782
18697,2273054123
5988,84326159954
-15071,0065351427
-35580,4525892437
-47326,4737474918
-48102,5988122225
-41492,4251639843
-33527,7213417888
-30274,5488205701
-36584,6990120411
-52376,2944562435
-71773,0963200331
-86829,744905889
-92784,5896594257
-90847,1780840158
-85798,4752750993
-82832,8302459717
-84913,5512141287
-91954,2017034888
-102903,553719699
-115935,941809118
-128170,489047885
-138177,929241896
-145147,284131169
-148111,984787129
-149414,076742828
-152336,133280605
-157228,992807597
-163309,041168138
-171053,106957532
-180641,612755269
-189944,585118502
-194836,376316011
-171778,079030633
-94822,4701215178
5173,44078044873
72821,0939777195
103647,085442692
130993,523511976
176368,393002242
234515,404947355
284508,599061444
304149,853138193
284205,929097116
233881,198635489
170943,537102811
113952,362192839
79765,476236701
74713,1275042295
91871,5601737499
116618,252059117
132362,221474975
129693,275043547
110582,652674973
85382,1672651172
64342,9201931357
50928,4612197131
44346,5653836727
40402,602331996
33984,1699340343
24654,203866899
13660,714401193
2505,34024888277
-4141,5331017971
-3956,65826773643
-617,059163033962
397,817064672709
-6079,21422362328
-22195,423152566
-44906,1066758633
-67863,5024131536
-83928,0236613452
-89207,9295154512
-77943,4711636901
-28784,2353973389
59565,8749427795
140136,445943028
179812,26144585
192350,861941755
205002,612203717
231837,39127779
267562,013116285
297599,817640513
306412,011772752
285490,415116787
241059,955631495
187812,079710126
142078,540765226
117883,939918637
117380,760693192
130643,316122413
143913,04699713
145829,471431553
133423,901473999
112247,534646869
90670,4955298901
74664,884501338
66909,0892421752
66488,4864920378
65667,968490839
55469,6212135553
36682,0884544253
19132,2364165951
11210,8686774969
12837,3348530531
18166,1430846453
21861,0978841186
20736,6940075532
13097,0741516352
-1221,98065900803
-20867,150231719
-41784,3012034297
-58722,6117896736
-68689,3305453956
-70704,8738135695
-66753,0232717991
-62832,5259488225
-63872,0482533872
-70278,5009172559
-82121,6084688902
-99698,5112594962
-118697,210926056
-132678,515661746
-136887,252258897
-118460,544066578
-69503,6453124285
-14279,3329917789
20142,7808686495
35814,063561175
47289,97143507
63824,7319311798
85022,3191574812
103923,429566257
111105,054135114
98268,8262078762
65847,6170789897
24007,2019723058
-11734,1234785542
-28232,479451865
-25045,290579915
-11588,8454276919
1109,44270792603
4521,91361705214
-2659,32170251012
-16541,033521831
-34353,2867614627
-53451,1419416666
-68330,9156792257
-75168,5154199302
-74818,1527385712
-73000,9334861636
-78231,4256792665
-92324,8837526068
-108482,18960613
-118449,641189992
-119623,962261736
-116011,271868825
-111314,851848466
-109558,061398059
-115858,795542657
-128945,733898282
-143976,858101159
-157318,458412275
-164072,664350003
-162896,092912167
-157952,905652642
-153328,722897083
-153063,303710833
-160104,232982114
-173274,95611915
-188303,671228528
-199486,500485629
-203111,183586121
-195515,615215957
-157848,704361126
-82788,5855324566
-8307,61148041487
33473,5869260728
53076,9606033633
73043,3216115534
