0
0
0
0
0
0
0
0
0
0
0
0
0
0
0
0
0
0
0
0
0
0
0
0
0
0
0
0
0
0
0
0
0
0
0
0
0
0
0
0
0
0
0
0
0
0
0
0
0
0
0
0
0
0
0
0
0
0
0
0
0
0
0
0
0
0
0
0
0
0
0
0
0
0
0
0
0
0
0
0
0
0
0
0
0
0
0
0
0
0
0
0
0
0
0
0
0
0
0
0
0
0
0
0
0
0
0
0
0
0
0
0
0
0
0
0
0
0
0
0
0
0
0
0
0
0
0
0
0
0
0
0
0
0
0
0
0
0
0
0
0
0
0
0
0
0
0
0
0
0
0
0
0
0
0
0
0
0
0
0
0
0
0
0
0
0
0
0
0
0
0
0
0
0
0
0
0
0
0
0
0
0
0
0
0
0
0
0
0
0
0
0
0
0
0
0
0
0
0
0
0
0
0
0
0
0
0
0
0
0
0
0
0
0
0
0
0
0
0
0
0
0
0
0
0
0
0
0
0
0
0
0
0
0
0
0
0
0
0
0
0
0
0
0
0
0
0
0
0
0
0
0
0
0
0
0
0
0
0
0
0
0
0
0
0
0
0
0
0
0
0
0
0
0
0
0
0
0
0
0
0
0
0
0
0
0
0
0
0
0
0
0
0
0
0
0
0
0
0
0
0
0
0
0
0
0
0
0
0
0
0
0
0
0
0
0
0
0
0
0
0
0
0
0
0
0
0
0
0
0
0
0
0
0
0
0
0
0
0
0
0
0
0
0
0
0
0
0
0
0
0
0
0
0
0
0
0
0
0
0
0
0
0
0
0
0
0
0
0
0
0
0
0
0
0
0
0
0
0
0
0
0
0
0
0
0
0
0
0
0
0
0
0
0
0
0
0
0
0
0
0
0
0
0
0
0
0
0
0
0
0
0
0
0
0
0
0
0
0
0
0
0
0
0
0
0
0
0
0
0
0
0
0
0
0
0
0
0
0
0
0
0
0
0
0
0
0
0
0
0
0
0
0
0
0
0
0
0
0
0
0
0
0
0
0
0
0
0
0
0
0
0
0
0
0
0
0
0
0
0
0
0
0
0
0
0
0
0
0
0
0
0
0
0
0
0
0
0
0
0
0
0
0
0
0
0
0
0
0
0
0
0
0
0
0
0
0
0
0
0
0
0
0
0
0
0
0
0
0
0
0
0
0
0
0
0
0
0
0
0
0
0
0
0
0
0
0
0
0
0
0
0
0
0
0
0
0
0
0
0
0
0
0
0
0
0
0
0
0
0
0
0
0
0
0
0
0
0
0
0
0
0
0
0
0
0
0
0
0
0
0
0
0
0
0
0
0
0
0
0
0
0
0
0
0
0
0
0
0
0
0
0
0
0
0
0
0
0
0
0
0
0
0
0
0
0
0
0
0
0
0
0
0
0
0
0
0
0
0
0
0
0
0
0
0
0
0
0
0
0
0
0
0
0
0
0
0
0
0
0
0
0
0
0
0
0
0
0
0
0
0
0
0
0
0
0
0
0
0
0
0
0
0
0
0
0
0
0
0
0
0
0
0
0
0
0
0
0
0
0
0
0
0
0
0
0
0
0
0
0
0
0
0
0
0
0
0
0
0
0
0
0
0
0
0
0
0
0
0
0
0
0
0
0
0
0
0
0
0
0
0
0
0
0
0
0
0
0
0
0
0
0
0
0
0
0
0
0
0
0
0
0
0
0
0
0
0
0
0
0
0
0
0
0
0
0
0
0
0
0
0
0
0
0
0
0
0
0
0
0
0
0
0
0
0
0
0
0
0
0
0
0
0
0
0
0
0
0
0
0
0
0
0
0
0
0
0
0
0
0
0
0
0
0
0
0
0
0
0
0
0
0
0
0
0
0
0
0
0
0
0
0
0
0
0
0
0
0
0
0
0
0
0
0
0
0
0
0
0
0
0
0
0
0
0
0
0
0
0
0
0
0
0
0
0
0
0
0
0
0
0
0
0
0
0
0
0
0
0
0
0
0
0
0
0
0
0
0
0
0
0
0
0
0
0
0
0
0
0
0
0
0
0
0
0
0
0
0
0
0
0
0
0
0
0
0
0
0
0
0
0
0
0
0
0
0
0
0
0
0
0
0
0
0
0
0
0
0
0
0
0
0
0
0
0
0
0
0
0
0
0
0
0
0
0
0
0
0
0
0
0
0
0
0
0
0
0
0
0
0
0
0
0
0
0
0
0
0
0
0
0
0
0
0
0
0
0
0
0
0
0
0
0
0
0
0
0
0
0
0
0
0
0
0
0
0
0
0
0
0
0
0
0
0
0
0
0
0
0
0
0
0
0
0
0
0
0
0
0
0
0
0
0
0
0
0
0
0
0
0
0
0
0
0
0
0
0
0
0
0
0
0
0
0
0
0
0
0
0
0
0
0
0
0
0
0
0
0
0
0
0
0
0
0
0
0
0
0
0
0
0
0
0
0
0
0
0
0
0
0
0
0
0
0
0
0
0
0
0
0
0
0
0
0
0
0
0
0
0
0
0
0
0
0
0
0
0
0
0
0
0
0
0
0
0
0
0
0
0
0
0
0
0
0
0
0
0
0
0
0
0
0
0
0
0
0
0
0
0
0
0
0
0
0
0
0
0
0
0
0
0
0
0
0
0
0
0
0
0
0
0
0
0
0
0
0
0
0
0
0
0
0
0
0
0
0
0
0
0
0
0
0
0
0
0
0
0
0
0
0
0
0
0
0
0
0
0
0
0
0
0
0
0
0
0
0
0
0
0
0
0
0
0
0
0
0
0
0
0
0
0
0
0
0
0
0
0
0
0
0
0
0
0
0
0
0
0
0
0
0
0
0
0
0
0
0
0
0
0
0
0
0
0
0
0
0
0
0
0
0
0
0
0
0
0
0
0
0
0
0
0
0
0
0
0
0
0
0
0
0
0
0
0
0
0
0
0
0
0
0
0
0
0
0
0
0
0
0
0
0
0
0
0
0
0
0
0
0
0
0
0
0
0
0
0
0
0
0
0
0
0
0
0
0
0
0
0
0
0
0
0
0
0
0
0
0
0
0
0
0
0
0
0
0
0
0
0
0
0
0
0
0
0
0
0
0
0
0
0
0
0
0
0
0
0
0
0
0
0
0
0
0
0
0
0
0
0
0
0
0
0
0
0
0
0
0
0
0
0
0
0
0
0
0
0
0
0
0
0
0
0
0
0
0
0
0
0
0
0
0
0
0
0
0
0
0
0
0
0
0
0
0
0
0
0
0
0
0
0
0
0
0
0
0
0
0
0
0
0
0
0
0
0
0
0
0
0
0
0
0
0
0
0
0
0
0
0
0
0
0
0
0
0
0
0
0
0
0
0
0
0
0
0
0
0
0
0
0
0
0
3634522,27583122
3633448,5618782
3626521,87329328
3626661,69885492
3641882,49453163
3663155,5147934
3674472,93155384
3676438,95408535
3682278,12096334
3696392,77751923
3707046,28144455
3699962,06125975
3679355,22723746
3666388,47712803
3674974,96497345
3694871,46251678
3706963,23788357
3709558,21581745
3714539,58316183
3728407,32583809
3744208,54812527
3750041,33325911
3745695,54343164
3741956,59528351
3746847,00053978
3755174,42899895
3753918,51991749
3742937,14404869
3737097,42117095
3747760,68591118
3768107,90458393
3780049,72964001
3777788,92558563
3774046,17362452
3781403,69129562
3792475,33686256
3791069,03443623
3779571,72808266
3778350,29682803
3802172,91398525
3838470,01885605
3861370,32824421
3866249,01922584
3869013,89199162
3883430,07461929
3903233,68521786
3908958,74476814
3898850,11033916
3893127,74697995
3907598,53529644
3933604,1499157
3949163,30657911
3947722,15944731
3943186,57425308
3949841,63145161
3960584,88736629
3954332,29894924
3927884,73548555
3901269,57541418
3891001,63362694
3889837,07220364
3879239,83678722
3856792,89074755
3840681,60767412
3847575,30709553
3868783,11883068
3881558,30659485
3880719,83916569
3879751,72095895
3888844,30694008
3899175,21619987
3894533,81733036
3877362,20222771
3867064,5707469
3876678,26084137
3896965,92658234
3906020,04265881
3898944,40941191
3892931,32037306
3900599,43139839
3913049,37303448
3912943,11916351
3899971,89641511
3891908,51321983
3901290,52221012
3918766,65139294
3924111,17590714
3913985,03708076
3905478,41394138
3911669,35723114
3923385,05808067
3923435,81240129
3913525,70922518
3911042,51758337
3925607,42154121
3947335,1052618
3960141,67518139
3962870,13221073
3969921,15274453
3993438,54779434
4024080,16748428
4038994,35184431
4034380,90785742
4031265,72212887
4044478,02752972
4061185,96681118
4059637,86118412
4040600,41567707
4026658,01532125
4033828,9836359
4051843,63534927
4058783,56961918
4048563,20291555
4034777,80973101
4033600,53055096
4041804,56089306
4041754,3685112
4032029,30348444
4029175,80573058
4041913,76575184
4058664,19453621
4060675,57852173
4045983,69958401
4035549,51236343
4048931,39038563
4074956,07189655
4085636,96774292
4075058,93141603
4063028,74140859
4067091,51428986
4083503,57231712
4096975,71253967
4101652,22765255
4107533,20652723
4127349,2447567
4154144,9920845
4166978,12468719
4163430,89773226
4162281,05397773
4176221,64739513
4194507,6997242
4198081,34514618
4188515,28329945
4184080,35345745
4192529,50562096
4201066,02173519
4191952,75828266
4166775,94924116
4147502,81781435
4150282,72942734
4166232,73228455
4176488,80015755
4176294,30580568
4174802,82739544
4182764,83657169
4196286,18145275
4200094,87733936
4195387,66242456
4200780,86193061
4223972,69591141
4248581,50179958
4253358,50248909
4237688,31515741
4221628,10262918
4224945,76254559
4242578,99995613
4248668,37729073
4235434,05554914
4223544,16072416
4227035,82490158
4232639,92624664
4220835,83584785
4193367,19743872
4170636,38905144
4169442,87004662
4185242,0525198
4195238,2475729
4185934,22233438
4168893,71089649
4161319,37335157
4161199,06173134
4153236,67015171
4134884,15364027
4119583,4414115
4119155,60846043
4127794,97546768
4127086,34601402
4113008,10550261
4100124,79489803
4101662,14800882
4114441,0402317
4120057,8990984
4109284,01579094
4095766,68622112
4095017,20569992
4101321,73583889
4095781,98314953
4076586,66126442
4063786,7996304
4071072,25068378
4088899,18646622
4099232,62518978
4098745,8526628
4100366,61241531
4115596,92842197
4137420,76235867
4148381,86916542
4145458,21724081
4143333,7840451
4155380,76349974
4174720,19246769
4183286,37658787
4177528,51034641
4168934,70436525
4169065,53020573
4174391,76562405
4169197,8917551
4151762,83740902
4138827,24970067
4145173,91239834
4165196,01336384
4179034,7975769
4181858,24741197
4189872,72685242
4216962,07460976
4253605,35789871
4277325,15821552
4283570,10728407
4285831,45101535
4292882,40826797
4299391,26518536
4294068,80006981
4277530,78262448
4266961,02494955
4277943,75087643
4305431,31564808
4329567,71440029
4341850,95355892
4355747,52340889
4387860,30755854
4433051,03092766
4468817,6001997
4485611,32816434
4497987,67633247
4522976,70111752
4555779,43457508
4579079,83076096
4591693,85295963
4609524,99542725
4643912,21377325
4688628,09339809
4728180,10559034
4757835,04861128
4788613,35173702
4830391,65355778
4875228,40165043
4908251,24933529
4932449,31603098
4965602,16657507
5014594,10451174
5065106,65213203
5099417,25395489
5114686,84703577
5124068,01440811
5146452,95742702
5183245,4408102
5215514,57344055
5234830,37188196
5253975,80378616
5286952,19097519
5329055,16437531
5361416,62314987
5380356,28056586
5405785,9482131
5452656,08732986
5508060,29396248
5549036,14205837
5571554,57625771
5589335,43539202
5615886,29607058
5649793,49407673
5679729,46213961
5705020,61106348
5737973,37005091
5785102,47395897
5833431,90406036
5864658,58989525
5881063,92026043
5902591,4578588
5941811,00496817
5989911,45678329
6029070,92594481
6055551,13425088
6083144,80173779
6125773,6616087
6178156,28991127
6221903,55407238
6253461,59036207
6288240,40841216
6336952,27227068
6390928,4148283
6433531,94942427
6462314,63651812
6491474,2574687
6533594,5507679
6584770,09879112
6630715,74681091
6667862,91219187
6708902,25460082
6766728,44425917
6836459,94061184
6896928,26222086
6936905,14303637
6971761,16141605
7023288,42598152
7086759,31869125
7139536,73227596
7178305,09004068
7219842,93041468
7277440,37001514
7346905,86625576
7410487,75331068
7460221,57973409
7507922,86049938
7567690,23137188
7634052,69031334
7687864,22246647
7726094,90843105
7765949,41048789
7821037,47638845
7884312,78461933
7939043,23584604
7983841,76253188
8034031,63359308
8102586,515769
8182191,40250206
8252674,85693836
8309167,36014795
8366024,8658414
8436124,66858292
8515260,15879917
8587622,8486166
8648061,4725461
8710422,37917757
8787366,79512501
8870595,97493935
8941709,29012394
8995736,85326433
9046171,13140079
9108193,51149082
9177486,60767841
9238227,9624877
9291056,85400796
9352488,20257187
9431321,50208092
9517530,70429134
9595049,06022072
9664313,13931942
9739961,06455243
9828042,66540003
9917145,70131016
9989681,75749779
10041606,1525996
10088258,3294454
10147218,9171648
10217080,772006
10282001,2274351
10338259,8040943
10398628,4604631
10472828,7238636
10554213,2407575
10627913,6074862
10692382,1204012
10759805,6987772
10837252,5254316
10916670,023962
10984280,5645008
11041062,9304266
11103970,5818594
11182936,5112114
11266779,0816002
11338111,4652362
11395386,8214632
11453358,9999843
11524120,4548502
11600030,9652081
11666026,680089
11722942,3715134
11782628,8198929
11852199,2497559
11926391,7883768
11994380,274435
12057631,0036059
12131288,5661864
12226069,2887115
12330117,0828934
12418257,0013695
12482753,6895161
12539814,6955296
12609054,3911605
12692214,1304774
12772021,03374
12837050,7477836
12897268,5176606
12967461,0136776
13043800,621769
13109510,1944942
13162135,4214449
13218396,3064047
13292063,6650887
13373319,9016085
13439280,1215773
13486643,4699491
13532909,3568916
13590465,8386345
13654874,7433281
13715249,936429
13773822,4206705
13843764,6717708
13928339,3761237
14014835,7148571
14088720,2958622
14150053,6313859
14213739,6201439
14293948,65312
14385446,7300167
14468047,2072687
14532432,9480238
14590250,2112672
14658095,2368968
14735370,4613056
14806988,8357067
14866462,0995111
14923568,7655792
14990310,2308416
15064212,8023071
15132524,1270542
15190456,4389744
15247003,1418583
15313039,8941381
15382903,4574318
15440354,0656414
15481619,5363065
15521103,357667
15575403,3545866
15640637,5978374
15699586,2711601
15748144,0984802
15796066,6883883
15851093,3820956
15909704,9176588
15963246,9086328
16008681,1951281
16010459,3700237
15898163,0527496
15659137,2649117
15313199,1182327
14840939,9305744
14241395,834029
13547343,9224682
12776601,6527572
11935513,8468213
11081538,3732971
10315874,1339869
9649952,79183197
9000284,64341831
8329580,29930687
7674944,99193859
7075597,35787186
6523797,5015707
5967566,62223625
5356957,96859026
4671408,88766897
3918732,08429384
3140982,45867729
2389409,7215538
1691401,46427536
1056536,39573598
482670,100257874
-51785,9698753357
-587509,04306221
-1161339,79956627
-1776311,74555603
-2402563,39408827
-2993952,09321594
-3518721,84197235
-4003338,9390626
-4497083,94307208
-5001206,42902756
-5486767,62034798
-5944931,55138206
-6390742,22826958
-6837797,641734
-7265158,29213381
-7632135,36030102
-7967704,02192879
-8356239,00624704
-8812044,2156496
-9271661,66621685
-9678793,08071709
-10028826,4966602
-10357180,2244291
-10696309,0032218
-11030068,104599
-11324513,7213583
-11614419,733655
-11961085,7425172
-12352437,1297493
-12724216,2644224
-13033815,9957657
-13292428,8863621
-13546366,0280762
-13832122,1383948
-14152289,3656807
-14490153,7491465
-14836364,4404974
-15189971,2995033
-15538860,8084993
-15859569,0961971
-16132595,0496559
-16341984,9655342
-16486820,4215298
-16609280,9754143
-16756928,6121157
-16926049,1916437
-17092078,6118507
-17252785,5417948
-17418971,3906662
-17600293,879343
-17805294,9843254
-18044534,8261471
-18320178,9328098
-18606949,0611963
-18861156,926632
-19035370,6703687
-19094665,2469482
-19079060,6835165
-19088168,0173335
-19163369,7762718
-19274480,7373161
-19392078,4438782
-19511648,8053741
-19636026,7590752
-19752729,7477155
-19825790,2557206
-19854820,4350033
-19907239,447345
-20017810,7375247
-20141899,4672337
-20226303,2827606
-20260094,5206261
-20236209,1063099
-20140488,8750267
-20030180,4931102
-19992127,0951009
-20036132,2797709
-20114322,0949333
-20175809,0569816
-20192286,484127
-20175659,1801491
-20167265,0747566
-20193545,1961021
-20255058,1251221
-20347389,4508147
-20448037,016145
-20524078,2340183
-20562727,0076647
-20566869,0171523
-20545214,6107206
-20517717,5353413
-20517011,1771832
-20561381,9885883
-20629871,0663137
-20688853,9328446
-20720974,0378428
-20726085,7554259
-20716860,9602836
-20702817,7754598
-20684008,6675425
-20662231,5898724
-20650599,3241768
-20664892,9511108
-20700313,1582575
-20730417,1575623
-20714935,1094718
-20614882,9830699
-20457444,6346951
-20327251,4677825
-20251771,9567099
-20190156,6301842
-20111508,4475613
-20019182,2138023
-19929345,928256
-19841867,0209808
-19727483,025146
-19592862,2182732
-19507929,5635071
-19494670,6734285
-19491104,1349049
-19434713,6574383
-19317731,6701221
-19178519,7066364
-19058595,2934875
-18956937,5598493
-18831114,8082285
-18687912,4116993
-18594313,6531177
-18558511,1514244
-18514379,1129007
-18408199,2450008
-18245549,540308
-18069449,6045341
-17919765,8230867
-17822288,8000781
-17779074,9536023
-17771532,7767134
-17777490,2943697
-17771326,1203644
-17724719,0009813
-17618499,8092537
-17468882,2315178
-17315120,8223801
-17176617,1137381
-17057353,3555936
-16947913,6284308
-16832041,2437477
-16712185,2174139
-16599340,5210637
-16498518,8008833
-16415614,088707
-16349643,0551739
-16277480,5246925
-16187209,0921936
-16090944,2162924
-15979589,1977816
-15835928,4386778
-15671974,3732152
-15512192,7965859
-15374634,297595
-15265095,9451847
-15168310,6511726
-15068862,5173168
-14965640,3092718
-14851827,5708472
-14714933,2935128
-14549211,8786359
-14365907,346159
-14187061,3655559
-14030539,6123571
-13910337,2816505
-13825076,4966164
-13749210,2191563
-13669515,6541872
-13592480,8901783
-13502706,3470385
-13380510,112473
-13236475,7997961
-13092109,4521096
-12958737,516593
-12843756,1797953
-12753178,5610962
-12650808,1359711
-12483314,0587626
-12278406,6403503
-12097199,5082858
-11943850,5203989
-11794798,6175501
-11635116,4137084
-11463392,2281747
-11297081,4787817
-11161057,2570925
-11059070,4944162
-10985329,7847157
-10940891,379424
-10904941,5117152
-10846580,8771939
-10759551,9229062
-10652027,4556699
-10531083,8963323
-10406711,4424925
-10299028,1579561
-10227609,7388859
-10171307,3370676
-10060307,7407093
-9875369,08530784
-9691708,75164628
-9564818,62178156
-9471335,49969006
-9361484,13125992
-9212126,40428925
-9046334,40287209
-8909343,1720109
-8827831,10858142
-8792858,06157947
-8767382,2590394
-8728847,90694857
-8693591,24656728
-8666762,54535961
-8618376,02808475
-8522863,40731812
-8390008,49034405
-8255140,3068428
-8145455,64887142
-8049692,96407843
-7918362,58482218
-7748777,87162209
-7615456,0375421
-7549287,06300211
-7496911,00451851
-7400978,84848213
-7254397,74841022
-7095367,76096439
-6954470,81254268
-6812943,32632256
-6659352,66597748
-6543409,33956718
-6498572,02231455
-6487378,99885845
-6449415,95963573
-6355026,47194672
-6223472,05590534
-6091604,03203392
-5970053,11859274
-5862643,21657038
-5786066,21872711
-5740656,46296024
-5708754,9272213
-5669275,69737667
-5605710,00100422
-5521081,47270393
-5433906,8618145
-5349061,6281023
-5265412,31960297
-5195739,66068745
-5134578,7714119
-5060930,82688904
-4973569,18732834
-4884011,11440569
-4802586,73792934
-4739515,98871422
-4694988,22252846
-4645161,77210426
-4563045,95115185
-4450778,45118523
-4325568,42263031
-4193974,1582737
-4060202,03739834
-3931895,48918378
-3817864,45873547
-3733652,24736118
-3693172,65923977
-3682154,04734707
-3673519,36897612
-3659230,55509758
-3626973,41819859
-3561452,53881359
-3471691,30721474
-3377701,63156068
-3293080,26108599
-3216194,93575001
-3130623,80120754
-3046395,74282932
-2995598,64118338
-2956391,09630513
-2878134,39776325
-2762082,89268208
-2644547,29607916
-2548612,99173093
-2476402,52425289
-2425778,90417957
-2403464,71978855
-2410049,26737595
-2424718,41550183
-2426319,7146399
-2408592,28958607
-2377092,0873785
-2346439,9297266
-2323859,38680404
-2300713,43810272
-2265851,9768858
-2219552,34300804
-2177029,97937012
-2153766,47707403
-2144991,48191047
-2117217,22963524
-2027320,67164087
-1892427,94579077
-1785296,47084463
-1725634,85122824
-1670828,24045563
-1592723,18402004
-1502487,6843133
-1425685,64693809
-1378464,96810102
-1352808,42668867
-1319409,07329941
-1281568,27602291
-1275573,0661552
-1289529,30334616
-1268589,36259747
-1189363,55204868
-1078046,83314514
-976260,586717606
-906098,370743752
-852069,885565758
-805336,85377121
-802516,753385544
-852583,504862309
-900588,016504765
-890200,509490967
-800835,929973602
-641859,314826965
-464631,338200092
-342414,026177883
-297446,218677521
-299411,696894646
-316732,888425827
-328321,388641357
-316423,775005341
-270387,860767365
-210635,553864479
-172154,654742241
-145109,002394676
-102651,319506645
-45679,8556423187
20570,5455846786
91904,8083763123
159967,031675816
217345,131391048
250732,760654449
240086,674873352
191776,192094803
152868,741163731
152402,651608467
179343,567425728
224474,687613487
284892,343236923
353925,211139202
422675,300629854
472826,765832901
483859,908766747
464310,785531044
437884,922441959
406380,089993477
378559,13563633
377017,033202171
403303,699557304
443743,662796974
485602,726660252
513648,147805214
510728,047402382
476981,839956284
430293,452608585
385212,485954046
355717,392111778
350071,600764275
356830,421694279
360719,681048632
359091,539058447
354749,351519585
340575,683286667
304697,063560486
251537,372853398
223915,752884388
293555,93418026
452565,113934517
587370,782791138
638131,178611875
652737,672791004
693391,334834099
777323,341794968
889730,178619862
997245,104739636
1048502,2315321
1021167,82174397
937862,375639915
832361,135252476
739031,240623176
688614,244535923
688971,675521851
724401,139389992
788859,513538837
870049,417659998
923775,542089462
931769,196497917
917131,1039114
898198,458787441
882644,897721767
876733,598499775
876380,314652443
860800,729115486
808957,499018669
725034,907755256
639196,75802803
585613,317714691
591644,93747139
648787,242964745
701501,874894023
716370,257540703
710463,887763977
703421,702569008
695721,860990524
683604,460095763
680918,956553459
737631,591956139
865080,08590889
971415,953466415
989416,341762543
962255,481428623
961108,815678596
1013628,09455585
1110149,61313915
1222737,74840856
1304760,34812927
1319508,51309681
1269211,61044788
1182775,61995792
1098181,26236033
1048297,67925072
1040612,19496632
1053859,24819088
1073696,44590759
1107487,84949827
1145584,21123409
1164175,10616589
1161972,92637157
1153825,33594036
1153748,44775438
1168654,95984221
1187703,06148911
1183429,50776863
1144810,9228096
1089311,26148701
1036075,41962767
1000309,17064476
988946,792042732
993715,996728897
1005746,62114096
1021469,37484455
1030786,90810299
1020871,50648308
1005523,18382549
1000912,60201406
989942,483327866
969486,200077057
961800,940966606
973336,648139
993870,760085106
1010788,68940878
1010026,43125725
975235,914321899
904926,94408989
818909,275345087
739338,724725246
685733,453426361
667242,760424614
680068,812866211
712218,023819208
738553,290166855
742398,683515549
737920,349228859
764259,327312946
843042,230407
941361,060701847
1014788,94373035
1053480,6401844
1064745,96799946
1057942,88814998
1045354,89074516
1030274,79022121
1001532,80851078
963216,552100658
947899,709485412
963966,121535778
981729,898771286
983738,419532776
975731,870615959
969937,930586815
977144,771733046
993127,265203476
992380,402646065
953439,27122879
885068,623974681
809437,755594254
741403,863560677
686204,487267494
638845,366575718
596816,718454838
567324,363971233
554117,896474361
543056,288284302
509849,737575531
448108,37805748
375453,495412827
321332,810006142
319334,02058506
360650,271265507
386788,837493062
377161,485641003
365872,407134056
377579,611867905
403596,195039749
423297,03700006
441037,084354877
498842,934965134
592448,774990082
636408,686476707
596018,647421718
536042,027143478
528467,860246658
591180,207503319
701538,004156113
813034,680271626
866314,900918961
840401,67166996
759136,953539848
653426,433679581
554053,822816372
488400,558964729
466591,69095993
484391,01659584
536108,725680351
604962,027324677
658797,591516018
682401,526889801
689411,066268921
695224,834450722
706055,57028532
720992,187672138
725654,77982235
693278,168932915
604939,17977047
474031,952545881
343101,046676636
267458,524471283
294077,309785843
399549,885602951
495587,011343241
537515,922342777
546597,008350372
545658,468460083
532668,468599319
500211,238705635
453958,216331959
407245,701316833
372011,694152832
342308,131746292
295553,219837904
233139,425665379
183681,935223579
160465,594291687
150448,4594841
138174,743718147
126586,612998009
161043,361670494
272497,703995705
386899,424711227
421350,94623518
399641,520658731
393559,286686897
437663,156300545
526069,913384438
634741,42899847
718299,656616688
735147,036073685
683181,957874298
591287,339512825
499696,928904057
443649,664532423
432070,26956749
444258,575644493
464376,21224308
483959,378890038
478424,829246044
444176,796278954
407929,782556534
384702,070807457
373920,829542637
371941,265407562
367649,932209969
338062,997876167
263464,381780624
151863,973214149
41635,2341873646
-991,558403015137
65767,1389245987
181383,37223053
255923,726704121
278757,098458052
288513,040182114
304299,421156883
317472,039693832
356130,802859783
471665,501844883
620827,328975677
706585,69377327
710675,185082436
689074,843327999
699984,46317029
758177,19852066
825914,320669174
857282,358694077
852063,621534824
823957,877868652
765923,727625847
688317,017273903
621891,877144814
590064,654403925
599537,94905901
634588,273995399
657963,537713051
631108,700888634
558803,529776096
483322,494271755
425922,226563454
380794,242443085
340639,793308258
305951,021006227
284622,731617451
277465,250837326
271477,766358376
269504,786259651
283517,751807809
294201,611026287
286003,28937149
271850,728525162
260559,238434792
249929,712841272
237764,14443779
220279,943433762
183730,551065445
124591,309608459
76373,0088967085
65629,7457389832
76287,6156206131
87510,5738887787
89717,3145365715
80080,6776435375
64694,6764826775
46717,4991407394
15812,8974285126
-43174,9651956558
-127116,061347246
-210932,924142838
-270552,861106873
-299352,564743042
-298388,109952927
-280305,657461286
-274136,113172054
-288106,955984116
-305358,975943565
-315826,060303688
-303752,247897029
-214989,33865881
-33843,4162254333
138113,101261139
202774,687677383
176216,235770941
136912,293709755
143570,991250038
194840,437290192
252968,91357708
307279,338240862
355228,108389854
360714,351661682
308403,484544754
227404,502340317
159791,728550911
139534,784916401
169654,459025383
217651,558073997
252071,742992401
259568,909176111
226799,844810009
160648,914499283
92590,0322303772
43895,4063940048
19962,0887262821
19348,5008950233
29886,4516048431
27676,4968414307
8240,15250682831
-406,340034008026
9983,92159318924
20312,3911790848
28207,2637405396
40779,5783510208
58439,5245571136
78991,1548032761
92205,2913751602
81255,1741914749
52293,816526413
38971,837549448
49664,7514948845
64631,522110939
79426,3655824661
98904,8184623718
122475,649400473
147230,242112637
163111,126412392
151340,263217926
105662,596320152
39180,9467691183
-26973,8303556442
-59170,5697898865
-45838,4457054138
-20993,762131691
-12493,6132069826
-15330,1895914078
-17823,8476839066
-25370,1867523193
-52624,3397274017
-68117,3192652464
-11191,6939659119
96111,3856372833
172419,573962212
189767,991214752
181492,938780665
191382,317129612
234467,784531593
284677,112135887
304344,958488464
281798,793213189
223991,466417313
142463,532006264
56378,1241607666
-19156,2013158798
-75613,0241200924
-103808,242249489
-103537,422100067
-95859,1065883636
-99215,2689733505
-99161,174887538
-87028,1645088196
-83161,4403333664
-97751,6472063065
-125980,836344719
-158259,870880723
-180850,828491211
-190645,828520775
-202589,102572441
-238584,494066238
-304333,009515047
-380318,490021706
-441205,53263855
-471386,737195969
-463348,174352169
-434593,106486976
-421357,018485546
-429246,49665451
-439146,86136055
-443474,539458275
-443205,549519181
-431023,694571018
-372608,731918335
-260982,329854965
-176352,123772621
-183020,59275794
-244646,371350288
-287189,49706459
-275211,759926796
-221294,6808424
-117289,748502731
54691,1886715889
225463,214626312
302275,699036598
282595,474129677
232415,050843477
218523,381542206
262370,873839378
329332,02667141
367022,714255333
352786,35248661
289994,172577858
194306,592716217
96158,8555307388
22317,4735326767
-15726,8335819244
-16815,8468937874
5673,00933361053
19600,7787628174
1595,80724239349
-28922,656624794
-48734,1817569733
-64285,1138296127
-77080,2611885071
-80602,4689321518
-74367,4146428108
-60640,4208903313
-49685,7739086151
-58488,3392353058
-81293,5334539413
-85485,9740359783
-66563,9225921631
-46347,133562088
-26549,4228696823
-446,403754234314
30231,8799285889
61343,9160599709
81919,9972391129
69812,0345973969
14762,788936615
-51985,8654031754
-94320,3808035851
-112251,935765266
-114971,365345001
-108424,070603371
-99570,4013092518
-90577,0748491287
-85330,612780571
-97919,8335027695
-144508,974390984
-192627,79646492
-156221,180146217
-23873,7618942261
106354,847122192
170406,138600349
194849,742545485
230229,703324318
296072,342134476
366641,923007965
392358,808796883
343150,22922188
232636,918615818
100795,939166069
-20745,5832662582
-123910,531091213
-206767,150253415
-259141,995019913
-274169,066963196
-259174,495435715
-216655,760719776
-139530,897540033
-50577,3734264374
9414,21053791046
31390,7369699478
28759,2803602219
16760,7856559753
9132,37146186829
7188,63957118988
-5047,53378200531
-50058,5742974281
-131240,060575426
-222673,789361954
-292462,479153633
-321135,979540825
-304411,525365353
-267923,620351672
-250736,666425228
-257147,297014236
-267481,51543808
-274590,388422012
-279536,099919438
-280449,747757912
-262497,189412117
-207081,839165688
-148219,939796448
-149779,625818253
-207555,171396732
-259163,555867195
-263346,698184013
-222381,877812386
-121632,534752369
67857,6479005814
281167,38188839
403853,49595356
412135,458008766
371159,289043427
356547,910879135
398894,243180275
467818,252080917
514442,421503067
527648,986518383
511462,831859589
456955,095786095
378064,081746101
309758,243123055
278582,990947247
294110,840771675
340747,93860817
375992,43318367
353174,279769897
267782,958426952
175710,737484932
128925,273010254
117433,917500496
110495,670150757
102398,38628149
104422,663967133
119915,398674011
129721,417771339
122616,898785591
122798,807686567
139397,281908989
148156,093732834
143426,468277931
136933,8960495
135246,426410913
141933,73334074
151622,47988987
148780,448228836
126394,691661835
86727,7853717804
32015,4622426033
-18756,9777488708
-44211,3264274597
-50879,2205553055
-57049,2795042992
-70731,9374623299
-93487,7325019836
-131972,531176567
-196654,038406372
-266713,524194479
-259805,497405052
-131443,772264481
32183,527381897
131625,079602242
163300,512236357
179339,693697453
219098,869168282
274202,759332657
318931,486798286
358214,137197614
389618,518825531
380840,263206482
329536,313824654
268689,413980007
230172,725007772
231163,088422775
265624,899209976
300460,376598358
292216,806465149
227445,819604278
143125,009879112
81864,1064424515
42779,9806632996
3627,22472476959
-40167,1535302401
-73152,3149652481
-82625,685631752
-78507,617600441
-79120,999724865
-91868,0611790419
-117968,49209404
-151430,807049751
-184601,901257515
-222815,780276299
-273115,306350827
-327927,783335686
-372265,348883629
-399333,726646423
-417663,220385551
-442105,244116545
-472668,779344559
-485985,669506073
-445001,921809196
-355656,572114944
-287401,086447239
-278291,671879292
-296295,448296547
-302371,291254997
-289203,834132195
-239590,191559315
-103219,621688843
97973,8191747665
249411,874410629
289503,517884254
261409,219797134
242000,193275928
274358,473882675
340439,333374023
398850,130473137
440701,772228479
461718,325081348
436461,750833511
369637,515920639
299694,193206787
261522,321319103
271150,933228016
316787,885014534
358787,704348564
349201,425390244
268751,268577337
143178,264983177
20972,1006546021
-65400,7708129883
-118773,388198853
-155393,270209551
-182234,625263691
-202216,336622238
-216408,722169876
-202696,617619514
-128321,692593575
-14677,1467475891
80518,925160408
142011,43618679
187506,270089149
228235,501877785
264538,366121292
284900,544491768
266919,75142765
195446,195383072
98032,3338160515
24544,5492591858
-10130,011475563
-17826,5249834061
-12941,2097902298
-6432,15452551842
-144,273001670837
3483,99139499664
-8579,57234191895
-54377,6897783279
-124602,921798706
-146144,670349121
-63057,9871826172
61040,8302030563
135863,503519058
155086,552898407
166812,811498642
208385,46818161
270257,437983513
318327,250947475
351729,309058547
378595,910995483
371998,012671471
320265,94056797
249898,099630356
196062,170560837
184445,995499611
214919,455962181
254939,547157288
258659,153269291
209517,768254995
135618,072044849
69633,2747926712
15604,9920339584
-37981,4097356796
-92586,763272047
-134312,087681293
-152617,644870758
-158136,696616173
-176632,42010498
-221185,636329532
-278341,681305408
-327277,096305847
-351338,556119919
-334825,307243347
-293509,344540119
-271974,384793758
-277154,357111931
-281976,838422775
-274222,216765404
-256567,426293373
-233636,509399414
-199349,206583023
-137546,559253693
-76768,9627513885
-80728,997800827
-148766,740106106
-215312,809200287
-231626,284214973
-199129,707335472
-118680,666068077
38982,6932897568
239276,638083458
372106,690144539
387234,796527863
334457,665640354
293544,853240013
310106,451860428
366739,297998428
417660,680067062
451967,529176235
470205,468719721
449255,405060768
391746,212070465
333185,420341492
305191,417822361
321656,854295254
369293,902938843
406387,499038696
384887,387115479
299167,140017986
198772,693425655
127712,192138672
88944,0214881897
70860,6373281479
67948,578166008
80128,4079372883
99965,6602449417
103942,514903069
82278,561709404
69277,0254020691
85950,9631567001
105744,220166206
115375,578256607
124702,821043015
140243,167900085
163825,019237041
185939,716655731
182593,489098549
137934,398449898
75381,6475048065
35560,0250153542
30539,6264686584
45860,9217758179
63325,7428483963
75400,5904347897
86791,8395957947
99456,1274433136
99060,8562517166
62100,6840286255
-6554,70618367195
-42034,4180202484
3424,0116519928
78533,4910573959
115636,721453667
113456,014987469
110749,225496769
136153,414167404
178729,72088623
217040,770552635
262966,270887136
314554,671845436
329547,749806404
297551,723626137
249682,42960453
216296,655739903
214936,680274963
242564,664113998
269700,844368935
258773,982999802
210739,46486938
168840,59418869
155326,7202034
149645,220734596
131255,623505116
104560,033411741
88778,0409216881
94421,0917110443
106097,516336441
92035,0896906853
36124,1845021248
-45131,4837727547
-122957,961904526
-185559,756463051
-244453,44134903
-312242,821760297
-381948,484566212
-436873,812058449
-473199,058113098
-503847,980074883
-536828,895027995
-534768,464684963
-427341,810943604
-236140,497397423
-88336,097237587
-45632,6059384346
-53829,3061213493
-40521,8020877838
15566,6536388397
80415,5053358078
128468,515776873
188965,918802738
267090,130634308
301879,991817474
263873,606249809
197080,935968161
165393,197826862
199686,033617973
274636,427300453
339795,076034546
380130,933162928
398169,26181078
374886,700565338
312248,868697166
243466,213962555
199012,358714819
195052,209132195
224562,07141304
252212,792181969
236287,287885666
177249,552710772
111144,570617199
57348,4264011383
18105,9481258392
-8883,9805803299
-29020,6612477303
-42514,6978311539
-51003,5116701126
-68733,3833417892
-98807,3571510315
-101622,836984873
-55730,9036617279
329,176577568054
39745,8323287964
67579,9057941437
89250,2819058895
107605,23462534
118328,992088318
103380,634119034
49634,7002658844
-10329,0394918919
-33097,5060834885
-26937,8627214432
-14580,2329483032
-1856,91539382935
9885,53429317474
22822,5526938438
34314,7430992126
27936,5396251678
-18242,438252449
-95426,7399404049
-132125,828552723
-76063,7396793365
16817,4060430527
70858,6485004425
81560,2095792294
88127,0273413658
120930,557806015
170113,990207672
210443,187979698
248741,717133999
286430,081225395
288875,755916595
248160,650650978
194181,150640488
156847,194775105
154636,896492004
185068,754310608
218117,04364872
212547,197245598
158659,692353487
84318,0046000481
13508,6496105194
-46918,477973938
-99502,437789917
-147194,383877516
-183528,679616451
-202976,895433426
-214286,785282135
-229196,175209999
-249964,24042201
-276142,193409443
-302993,372046471
-324815,491377831
-343705,517853737
-357615,977062583
-364343,314740658
-372030,777608871
-387743,574742317
-414204,585486412
-446980,703322887
-470631,298269749
-449355,696281433
-346795,603888512
-210842,608460426
-142581,66022563
-157776,320482731
-189301,695505142
-184141,742541313
-143381,2993536
-83528,2264485359
19075,3557190895
166390,908590317
274236,582121849
276883,358439445
207401,80889225
146398,011879444
150376,062669754
212224,197042465
288102,621868134
362155,54640913
423989,621297836
433749,455779076
383654,86365509
313115,086993217
265749,15661335
266451,558824062
308194,950264931
351736,379590034
345614,950443268
276244,168883324
190384,27572751
132056,375905991
98373,8756790161
75285,8348932266
63118,2179832458
68398,0624232292
88233,9764041901
99429,3690414429
77745,1644535065
44663,1158928871
38600,1731684208
49224,1582288742
54038,4186429977
53628,3142147064
55031,8217568398
64908,5598931313
80113,3179330826
82951,1993370056
62227,1332387924
24053,851044178
-18160,9623286724
-46068,1312856674
-52227,7732801437
-47988,9514570236
-45168,5826678276
-45779,7259607315
-50316,7972984314
-68899,0694923401
-118277,134849548
-196775,997809887
-241316,085830688
-175331,781195641
-35507,6466341019
69581,6026544571
104950,379261017
115842,586555481
148697,410523415
207517,911811829
269333,913090706
305987,441222429
290013,139683723
223229,223165512
135865,492164612
50471,9523353577
-21110,8722298145
-67490,2908158302
-82082,5752801895
-69507,8895921707
-51627,7101373672
-39332,4073886871
-10993,8542566299
36293,7190799713
73612,8644285202
84450,499625206
75751,2484200001
65638,5364713669
64288,5587673187
59065,0999937057
24514,5954046249
-49161,3139810562
-142082,362322807
-222403,967381477
-275934,163239479
-309332,030678749
-324064,314403534
-321468,970109463
-317298,159320831
-322976,211492538
-340829,342700958
-365613,607629299
-382783,542886496
-367707,61582756
-289983,858958244
-179474,700094223
-125067,799257517
-149959,665855646
-193948,76664257
-202671,007910728
-172041,561355591
-123608,09951067
-36319,0299265385
118586,808708191
269948,93342495
319310,353591919
273312,079523563
217022,755194187
221312,003156662
289750,695034027
377254,609846115
455936,062447548
508754,7158463
500396,8191185
428372,336981773
334061,188530922
262589,776149273
243961,695587873
277493,664310455
324216,024910927
331586,177883148
287980,530889988
221876,883812666
152977,058401108
92660,421128273
51274,7173528671
30262,2745366096
28661,5025675297
38854,2504081726
37184,8214902878
10520,6455030441
-3813,70659160614
24496,0617702007
64084,8730239868
90525,5145025253
113049,127297401
140119,084688187
172688,512177467
201038,182583809
203128,099524498
164486,794894218
95168,8066835403
22158,1781196594
-25693,3315925598
-38968,2902364731
-32268,391784668
-23001,7203431129
-17119,412539959
-16998,5005893707
-34901,0980567932
-88579,7457151413
-177997,940003872
-257793,164808273
-249720,357172966
-145708,704171181
-41356,8989458084
-2747,71958518028
-3644,97767519951
6749,4386806488
44064,9736289978
101897,192141533
194825,873034239
308706,764219284
376123,351467133
369473,781256676
321540,10412693
275983,465394735
264153,162909031
289075,940348625
322074,093021393
319030,559347153
260711,790947676
180865,171938419
120887,020384789
80231,5012073517
40333,8681402206
-1755,70934557915
-31424,6745481491
-36874,2261343002
-27912,7360048294
-17044,8249807358
-2131,31343173981
10879,1286745071
8928,9154586792
-6102,2116727829
-28318,1349697113
-55110,8996424675
-80535,259417057
-100033,847618103
-121178,59630394
-163016,41186142
-233291,609150648
-314189,433176517
-374653,998345375
-384809,99865818
-352324,348345757
-330867,687500238
-348475,988645077
-380995,219643593
-400992,393585205
-407933,469852448
-412835,721298933
-385215,258920193
-263754,39689827
-81282,6416625977
40702,2370567322
57747,8181507587
34289,5041928291
46270,492524147
112669,957873344
204097,391105652
302627,161271095
387612,471676111
409793,539268494
357215,130788803
269201,93648243
193244,929824829
165323,911344051
189857,0385952
239062,303634644
284222,882647514
301647,696831226
268491,664273024
197121,958111763
129731,543134689
89815,7001714706
73952,4905123711
73113,5334751606
75968,1553440094
60201,1279582977
16934,5113801956
-10926,7940912247
13450,7791574001
60911,4055967331
101463,880355835
136168,489659309
168322,388421059
197831,948914289
217531,349255562
211261,756951332
175207,145999908
132108,483240128
96943,3539459705
68218,6411743164
54242,7941684723
59751,8747682571
75172,0326941013
90898,3289549351
98053,3020925522
80958,9203329086
21866,5044965744
-72065,9882035255
-128665,272764444
-70516,8875255585
60479,9641504288
159532,853401184
196233,642357111
211937,695846796
248631,404191017
305803,653083801
354318,301474571
388878,389975786
411502,759613991
396029,985136986
335461,037654877
256468,841928482
189679,802723408
159996,121168137
173370,535101891
205889,684814453
213277,814063072
175287,995079637
129645,5561409
112825,58441925
104728,116844177
76885,34882164
33862,451728344
1392,42044067383
-1474,52637958527
14512,9644021988
19602,7036628723
-3623,90549457073
-51140,1526360512
-108081,222648621
-161879,901051521
-215788,023812294
-278252,951088905
-341966,876437664
-383944,046630859
-387981,210593224
-374529,216481209
-379991,783619642
-405823,669797421
-417098,192240715
-371671,180830956
-280019,995467186
-216324,293882847
-219330,001510143
-257193,485147476
-288883,09294796
-303469,496856689
-293513,942611694
-206507,295116425
-22849,0422954559
158571,305408478
239644,040440559
232744,241621971
212244,993950605
234698,231219292
297161,380607605
356736,532030106
395623,923072815
414604,682583332
391034,150547028
321594,189992905
240698,792350769
185224,578705311
176791,180156946
211370,743476868
254260,935577393
259469,513684273
222355,983977318
186616,18273139
174073,145737648
166922,84044838
154991,175820351
147853,372414112
159726,636297941
191286,703856468
217031,511491776
206482,829662323
157527,149216175
87492,7197630405
13903,6005868912
-44605,0889987946
-82566,5897302628
-109260,682089806
-130079,561105728
-146563,236851692
-159315,953017235
-147970,367269516
-88665,6538267136
-8596,50828456879
49453,8821411133
86984,2702741623
121655,389978409
155477,293655396
181885,986458302
191152,028028488
167634,319061279
110829,251595497
58362,4092903137
36589,0143742561
31781,0725107193
36942,9440774918
53974,4564599991
74954,961327076
92304,3065216541
100193,822622299
85349,0470142365
34097,0382871628
-14308,4463799
12506,3652074337
102948,734992981
182784,488735199
222822,05169487
244448,766924858
277146,255147934
328874,865995884
376456,709539413
383603,678956985
332826,467609167
247592,26291728
169226,297517776
109985,376239777
58923,981385231
14746,6978628635
-9422,66121101379
-4650,15802955627
15559,1253871918
36292,5957446098
65018,8897064924
94230,4475140572
96205,3152580261
70483,9453687668
33279,6264128685
-4612,37697637081
-31725,9342918396
-43150,8984994888
-50790,9827470779
-78997,9142889977
-140750,827187181
-221618,236086369
-294798,354495049
-335601,893306732
-331292,744083881
-306769,47227037
-304133,001927376
-323710,336385727
-336408,599423409
-332168,922545433
-306001,98957777
-212240,215546608
-32954,2067165375
137767,063969612
203300,450989723
174274,256554127
126454,687113762
122877,333797455
169243,203288078
224504,471487999
267933,582753897
306714,101155281
318557,117114067
280155,024116516
208619,343971252
141583,395825863
112928,944565773
131229,249072075
172788,406959534
201756,458911896
195705,854316711
166571,778133869
145496,277310371
136291,756712914
125875,061877251
116614,24614954
120158,261454105
139266,679785728
154216,947840691
135518,664955139
80590,3582148552
11322,5146665573
-53659,9750499725
-100470,989169121
-128406,070126534
-149432,310598373
-169524,19023037
-189046,282378197
-209718,178127289
-211922,171570778
-169554,17082119
-109981,186290741
-72009,9966411591
-46937,2715902328
-17780,9740514755
11959,6986846924
33114,4597921371
36574,622127533
10451,4474449158
-40167,387711525
-78651,3392763138
-84612,4448232651
-75054,7261219025
-57932,3115911484
-30258,6094074249
941,053701877594
27282,6481304169
41935,227309227
30744,8208761215
-9009,10590553284
-28644,9390151501
10839,6603395939
69119,2426600456
105811,095286369
129667,507568359
159426,405271769
203746,241328955
254366,150687218
283086,502597809
254811,125920296
157552,873169422
19199,7975838184
-111782,371806145
-204737,054452896
-265301,104379654
-313500,587063074
-355615,662889004
-376101,960558891
-349444,487314224
-285627,104701519
-234142,999272346
-218916,41908288
-221662,129198551
-221598,921495438
-214526,6819067
-198724,914616823
-180519,278542519
-180116,78601265
-202942,320399284
-240109,130224228
-280542,944357395
-308156,36238575
-311865,121452808
-284371,459290504
-237586,354065895
-221081,300759315
-262445,690267324
-326568,652356148
-365631,724691391
-366619,614297867
-342832,096749783
-277463,571753263
-128023,129711151
59551,9080181122
164730,621769905
153361,463634491
101951,896411538
96323,0567288399
160098,730021477
250587,751689911
336476,89666605
429602,340997219
502389,025239944
498974,271432877
426883,070202827
349860,583057404
329435,092241764
383380,466846466
472596,46250248
526179,478447914
497063,380304337
409398,66192174
318735,107748985
242705,198619843
177278,896489143
131917,751715183
122731,62417531
150799,402974129
188032,533508301
197108,141098022
175004,17618084
140220,43248558
97479,5232028961
55338,6759815216
25043,3946666718
7552,99203300476
1647,30638217926
824,228983879089
-9312,89551067352
-21397,9787530899
-6051,84121274948
26627,4196109772
46035,4545402527
59891,0310497284
84518,3189573288
114621,857655525
138061,08941555
142535,179055214
118218,2803545
76132,9657678604
34157,9490756989
8475,52254223824
29721,8841428757
98598,1585836411
175179,898859978
232119,862023354
267246,303894043
283301,362714767
272760,658061981
219675,446331978
129313,501930952
67430,856906414
96126,9068975449
175031,494029999
225890,748083115
233691,202970028
234941,64252758
261061,162247658
306545,953484535
341684,546076775
340116,762163639
303141,160965681
255147,27557373
204564,759031296
143607,243550301
78724,3504095078
32846,6738452911
22873,2492361069
37450,6042509079
48063,0084629059
45122,5080680847
31450,258040905
1964,85167694092
-40812,2408103943
-90353,7721366882
-143895,087953568
-192664,977029324
-226301,350374222
-242334,665909767
-246892,173342705
-254458,181974888
-278008,754212856
-310339,456027985
-331559,850540161
-326651,489735603
-304262,78045845
-296029,253233433
-312698,658540726
-337534,046724319
-360783,571120262
-382440,944606304
-371122,523388386
-264022,28007412
-81317,1833696365
54765,3872528076
81310,7815680504
52281,7826268673
46317,6315507889
91578,7531385422
172595,336391449
280635,472240925
387848,512594938
430396,770236969
391061,082791328
313583,689240456
247431,669221401
225143,8012321
250380,618902206
290770,202871323
302262,256924629
274402,584810257
221666,525976181
154420,315405846
90585,8665742874
46454,7139930725
23592,8010854721
19245,0014538765
24829,1094875336
24721,4261960983
15758,6403560638
8695,17962265015
-1683,14780449867
-22627,3175992966
-38104,1342020035
-36083,2304916382
-24583,9076080322
-15535,7459962368
-18412,7495918274
-39625,1709699631
-66289,6555671692
-63691,4159479141
-25397,1435668468
16610,9062480927
51275,0458993912
88633,0839996338
127986,797364235
162219,02464366
181256,515604019
171148,559521675
128958,062176704
67781,3215827942
17317,5860583782
10172,5692090988
40223,8896846771
76333,4588947296
103087,141128778
122981,915569544
140248,128872871
145042,274240494
115155,21620369
56176,7151505947
30031,3942856789
70426,8528738022
125068,72849369
143154,540689945
132372,376319885
130168,747434616
160803,425640583
213010,117788315
263582,853582382
291153,782167435
277714,189342976
232101,877077103
176360,951838493
121155,328428268
75030,5467867851
50387,2981386185
53170,2288150787
67983,2773933411
74754,2093458176
88617,2491387129
122541,711054325
145342,495315552
139480,442790985
118717,995299816
96530,641007185
84077,2049794197
84929,764342308
85420,7375383377
58518,0007753372
-11367,1586740017
-107978,533742905
-198141,390701294
-257565,505764961
-276526,315992832
-268984,895662069
-268265,133320808
-284281,260334015
-301332,333595276
-312822,308609009
-322318,398495913
-325089,022898197
-279330,811758995
-151084,71901989
-12956,6328687668
33520,1461338997
-3931,59050488472
-43221,0009155273
-28018,7969884872
34256,1329698563
125468,099794388
260300,767692566
408459,682806969
482287,178466797
451363,850529671
369397,656234264
312071,094848156
322353,073366165
383236,80632782
443344,64676857
471813,58049345
458748,697844028
397499,978556633
307723,255842209
224411,801029205
169293,023464203
151280,384525537
164304,511663437
180106,612262726
163011,064382553
111718,402154446
53641,981667757
3041,27093791962
-33097,6776580811
-51498,230266571
-59837,1947073936
-64465,9625449181
-70088,9518690109
-84561,0894021988
-100475,726494789
-85320,7679038048
-36020,4784016609
9994,51696872711
44258,1174268723
83172,5107679367
127218,487852097
166447,52848196
186861,69903183
172214,259093285
120895,122226715
47355,068374157
-17326,6345076561
-28977,84329319
15206,1301784515
73134,5555505753
117138,241202831
147341,51630497
168070,100563049
171123,348227501
136329,085977554
56497,5957937241
-17769,5571987629
-13405,9384126663
54451,315112114
104823,045478821
107893,329139233
98593,4027702808
116581,568571091
164187,175003052
219704,434457779
276794,306625366
320477,397328615
314562,095992088
258069,686238289
184760,204931259
124048,737613916
94923,0689220428
101200,160619736
121369,080148697
120914,294455528
91238,2215633392
47379,1120314598
-2707,3446893692
-52414,1148109436
-97973,5938501358
-141834,069637537
-180213,776427269
-207460,483343124
-220366,072138786
-218581,657632828
-218294,867611885
-239275,887858391
-271720,569968224
-292060,388305664
-291854,863257408
-282652,854749441
-287076,722477674
-313045,894639015
-350697,31681633
-394019,264246941
-440872,975964069
-461047,604385138
-385860,116361618
-209407,024320602
-46175,9373836517
14880,4738678932
5024,01072835922
133,011604309082
38534,3047943115
98511,7797803879
147485,075541973
202712,228285551
273164,016194344
303627,84496212
260147,871143341
181057,197212696
131140,908953667
148237,751781464
215401,890388489
290737,26309967
357369,166161537
398824,725708961
382964,418030739
317594,92410183
245267,944708824
198885,917797089
192791,744276285
219455,191806793
247873,52118206
243639,010754585
199228,398364544
130675,474900961
59225,1402769089
6757,80917453766
-18439,4680938721
-26301,1923265457
-28485,5244219303
-33975,5987062454
-49713,8792619705
-65294,7952537537
-55769,2022533417
-23154,6322259903
7562,43110179901
35079,879825592
69415,0094013214
104626,785644054
129295,569314241
133570,05569458
108091,482241631
63834,2713298798
34253,3551034927
27066,8377974033
26066,9845380783
35580,8798799515
63001,0916919708
96586,3619337082
121715,407724142
127873,142794609
103097,810853004
34546,39128685
-70896,4673967361
-145750,384400606
-109981,120801926
7077,49973487854
104119,829888344
141536,990423679
153553,675716877
182762,042301655
234603,58412075
287635,233264446
337569,100100756
375478,709626913
365946,479927063
305244,796312332
227472,069620609
164563,816187382
137853,793147802
150772,76952076
180000,506354332
188168,983462334
169464,293806314
154519,726061583
149977,052696228
135064,177485466
103729,540396214
68511,8837385178
48622,4411447048
53470,7620201111
68144,9650201797
63632,9887304306
23101,6656355858
-46899,9644508362
-124942,478941917
-192089,189202309
-249312,620702744
-308584,861180782
-369386,781447887
-419746,889659882
-455644,36114502
-489441,402620316
-533746,364504099
-573574,223834276
-543180,335913658
-396376,126729965
-215875,634586334
-119060,721760988
-107138,225041866
-104716,696193695
-63115,5139818192
5140,01252365112
60914,9299128056
112176,373680115
193810,109662056
266629,037841797
261095,990656853
187254,493999481
119681,863871098
120179,742095947
190314,321556091
290317,713944435
389909,03173399
456505,867443562
450639,190735817
380981,694239616
293662,396877289
226134,502608299
199311,543590784
211849,944850922
236291,88599205
237697,201480865
205724,842260838
169016,015813112
156848,713124275
162653,956074715
171541,096552849
181130,175246239
194338,59581542
209834,3726511
210058,275407791
173922,276392937
104282,499723911
22093,9351422787
-50983,3388051987
-95745,5357456207
-112623,937017441
-121685,79728651
-137467,17618084
-163126,162390709
-185878,772746086
-176649,114784241
-130924,284119129
-72173,6593961716
-10508,5161361694
54143,568482399
117267,460738182
169046,068413734
199287,016658306
202140,129599571
172185,585900307
113516,41967392
46470,9682588577
8221,84517085552
27058,3582925797
82559,0598526001
135899,782697678
171629,808963299
195000,73688972
214919,915724277
223786,811468124
211551,785972595
202723,264625549
215347,977300167
219970,706880569
202042,342870712
180356,379156113
171322,35023284
182542,605082512
209587,789851665
232670,649453163
229637,960584164
199352,059270144
167777,826347351
153267,88209343
144339,687129021
130414,416834831
117068,005680323
116294,68206501
133888,733900547
154267,062253952
148530,182566643
106571,97851491
42216,8845450878
-29682,7591919899
-97713,8906555176
-158732,224174023
-217076,566836238
-268861,109515667
-303608,148705482
-317763,451767921
-324126,36915493
-344792,502068996
-386432,429496288
-428117,870799541
-428273,46257019
-378625,505331516
-337885,121836901
-347524,684076071
-379980,00459671
-392612,862607002
-377191,727873802
-348736,184127092
-280257,68598175
-122391,892151833
71821,9414710999
180472,536174774
174519,776007652
132225,073559999
138030,301811218
211655,07099247
309316,599616051
392619,637964725
447026,547269344
442602,628584862
368089,33251667
257984,828868866
159831,881761074
110823,379294634
121213,973395348
168853,877783775
219748,984155655
247888,62887907
249891,720404148
241238,402154922
229815,123610497
219127,427073479
216617,679249287
228488,734945297
250776,470819473
259500,650197029
221613,933391571
123761,373391151
-8223,37223744392
-127226,518557549
-202309,575978279
-234737,627339363
-236480,088571548
-221890,825997591
-216590,231838226
-230901,815103531
-228775,773428917
-161894,483575821
-46184,7910680771
60735,6143045425
137670,812260628
189417,511894226
215156,448939323
214327,288885474
189045,145589828
140619,883019447
79888,608792305
27766,6355137825
10955,7189134359
45151,0805835724
107729,314238548
164937,734436035
203548,022891045
226894,18639797
241577,213314533
239627,678691864
210595,292905807
179476,201761246
171299,104630351
165015,68885994
147346,283321381
132285,028754234
130234,300921917
145542,197889805
172376,301380634
195081,728837967
206221,742481232
197945,483575344
155911,469441533
93583,0619196892
44059,1344146729
20347,6170635223
13750,0299818516
14116,5018187761
15165,149805069
10572,647359848
5866,87988042831
1955,90391874313
-22352,9284927845
-66425,3595547676
-102050,316855431
-120207,706106663
-134455,405695915
-154890,55337429
-178923,652603149
-195864,796876907
-209950,16958189
-245251,301490545
-303988,326637268
-354537,482280731
-352142,418275833
-281397,796975136
-196178,341808319
-159713,316523075
-168996,761628628
-181794,725803375
-177130,449513435
-163237,329868793
-125281,772423625
-16952,2797822952
134690,449277878
220067,096599579
195491,145821095
127268,937957883
101101,695608139
148232,007938385
247378,749597549
369893,949780941
470985,193850517
491949,117220402
427195,548181534
321762,507024765
223890,497567177
170008,719504714
170405,331022263
204566,344370842
242123,19250679
256759,864076138
235703,569759369
191954,617059708
147896,321850777
116256,194142342
99327,8832058907
95902,2298452854
100332,58045578
94190,5079421997
63028,7886610031
29761,3579955101
19835,5609107018
18339,251865387
15685,9209833145
20939,5854883194
33635,9435515404
48064,940695405
56342,1438188553
49518,7302589417
32751,262544632
11500,4217200279
-12096,6589473486
-16952,9233541489
7343,30821609497
45622,6715993881
81801,8711166382
108282,574722648
120707,687302589
107551,844445229
51466,6076536179
-51098,8538060188
-156624,339259386
-178363,477433681
-92451,649353981
12462,7865438461
61121,9667282104
67655,3225264549
79706,1583867073
116805,757499695
163017,058329582
216240,681756973
277900,843737364
306682,814667702
274789,074712753
205715,048903465
137841,352626085
102265,682206631
109302,495304108
142055,670280457
173526,232483864
188192,265130281
191576,069639921
193184,215720177
186172,089673996
167095,935424805
146619,548781872
138063,299726248
146481,43702507
156334,390183449
142484,282441139
97651,2909941673
31779,6471829414
-39785,7597169876
-98229,8099126816
-139272,325437546
-175514,67761898
-213676,253789663
-247033,84926796
-263295,659822464
-270121,13886261
-297161,989622116
-349049,274036646
-394959,313882828
-395575,163930893
-336764,521507263
-262225,276607513
-230873,918797255
-247913,78571701
-277788,061582565
-296786,582343102
-301415,941666603
-260653,017453194
-124140,232086182
66637,1285429001
190213,077671051
198649,452531338
151973,445955992
131759,897820473
170155,277194977
238453,632305145
310548,387174129
384261,191440701
424473,065404892
394509,872369766
313306,325470924
229823,770464897
188269,71952045
204043,39495945
254337,999786377
300250,503183365
306390,765433311
259321,112454057
183397,198687553
112845,720151901
62373,1133966446
31874,7298970222
19939,9897968769
22785,2233924866
27529,8303461075
27885,0441255569
25800,0407133102
11714,5822355747
-16384,3740177155
-36964,9593038559
-36882,1625413895
-26803,1730437279
-21774,9125796556
-30880,2328472137
-53388,6525335312
-63540,6589851379
-37795,0954489708
588,350553870201
24081,140455246
47676,0909404755
89765,0595159531
140472,607405186
179207,350040853
188935,169440746
159913,968556404
107569,158842087
68244,3518466949
50526,3283148408
39606,6991844177
43010,1922674179
71549,1364240646
112504,970420837
146142,877758503
158178,717721462
136297,207389832
68103,4011411667
-31131,6768517494
-82137,3870873451
-24141,1042704582
86069,9320116043
162333,454221725
193031,864823103
216168,096843243
261403,13805151
322467,215525627
366650,178131104
359723,317006588
286668,845989466
166178,927335739
38062,0277423859
-72586,0697889328
-161548,384941339
-223476,94492507
-250486,823123455
-241702,587693214
-189821,832224369
-96285,8432838917
-7593,52055692673
31853,5031929016
32668,6967887878
21783,4298381805
7748,4032804966
-7550,36458182335
-23404,8703374863
-47986,2028512955
-98378,3010654449
-182349,986479044
-282539,427854538
-354349,820545197
-341017,144872665
-251948,789178371
-178232,187515259
-168472,828879118
-187245,37853241
-189329,542051315
-168083,282156944
-147596,893427372
-125679,646557808
-54370,7088098526
60080,4821996689
125382,627633095
96368,5213279724
30516,0175600052
7659,54944705963
55347,8658428192
147053,889289856
255307,007458687
348613,930163622
374301,083471298
320051,273788452
225409,280387878
134364,042983055
79919,2101831436
73762,3673706055
99455,116065979
133995,999722481
156082,545041084
148143,725744963
120196,088744164
94793,4466733932
80362,2846469879
75864,4707455635
79217,0283324718
85725,0977945328
82135,1994047165
61703,4880981445
35247,5373315811
5728,31885111332
-28768,8779993057
-49321,2129297256
-41934,2243156433
-19161,1379585266
-863,125230789185
-1899,36552524567
-33772,6091976166
-88202,3312730789
-116954,274299622
-93400,4783710241
-52887,6823377609
-17479,0955467224
21478,2543697357
63163,4398880005
99209,6969963312
119117,145296097
107477,154253006
59075,035279274
4533,58063697815
-27274,2863776684
-47267,0345015526
-60645,1447868347
-58221,5612344742
-43378,3117771149
-24292,8499857187
-9860,64564037323
-14856,5178804398
-58496,0470132828
-139470,885567188
-189401,237042785
-130587,451099396
-1889,97057056427
95041,7068824768
131548,59105444
151804,048448443
198956,509826183
273609,999371529
343435,320888996
368324,415639639
328727,604474306
250120,435413837
168315,484612465
88419,6258325577
11375,7286639214
-42553,9450039864
-53441,4591856003
-27762,5000762939
5237,8482003212
33877,7561314106
57085,4776055813
53525,7645101547
15838,5016927719
-39604,39752388
-97985,5070180893
-145481,741466522
-172093,521248817
-184004,345453262
-205567,924352646
-256873,257829666
-331336,685276508
-399283,275479317
-411751,300158501
-352321,141337395
-286843,495583296
-274832,767103434
-296424,569476128
-306221,906050682
-290803,698115349
-268164,164456844
-245710,680000782
-180284,515612602
-49945,2347993851
60569,3104200363
70262,7002916336
12630,9528653622
-25215,2369203568
4147,49798583984
86161,9433298111
201672,317649841
334059,617149115
421374,727446556
416822,98287487
344665,485507965
258792,703721046
205955,767677069
204979,172341347
236335,480900764
271104,475923538
292660,221919537
278255,987452865
219936,656362534
151139,700377464
107302,604083061
93884,3448877335
98852,3996382952
105792,981007576
96669,5100870132
65975,4856176376
26461,6584143639
-9104,75620424747
-32403,7500238419
-31895,563293457
-4327,09725761414
35228,0993795395
66895,7714388967
75616,3467235565
50512,0374574661
7275,42674064636
-16077,442065239
-19370,7736243308
-26122,1198654175
-24527,9239311218
3251,76586437225
44978,0193223953
78775,5864941776
89357,4930791855
66779,5078554153
20922,8615407944
-14738,243792057
-28138,1908979416
-35204,3209366798
-34002,2780170441
-14179,2562074661
15402,6255874634
39187,5965521932
47507,5336093903
31095,4678936005
-24418,1091365814
-105041,893529415
-135645,112046838
-71338,7985048294
26881,0625019073
89219,9706091881
113116,624039173
133600,855807066
176863,24519968
235370,436843395
280007,225220203
289067,830786943
265425,120098233
219904,895190716
156774,93356514
88030,6463069916
32519,9277715683
6649,5871784687
17337,2885274887
48803,8495788574
75757,4792399406
97194,4738068581
112508,5221982
97310,750269413
51445,5794858932
-404,14901304245
-44508,0259826183
-73618,9994177818
-84436,4242591858
-87167,155418396
-107166,383352757
-164845,086254358
-251939,030079365
-339778,12498045
-404153,287641525
-433276,991345882
-438865,271687508
-453377,857194424
-485488,00934124
-513993,731927872
-527254,886886597
-531860,940078974
-528598,521892548
-475716,765364647
-328459,601629257
-152485,012582779
-67739,1111855507
-85558,4908587933
-119002,371284485
-96893,9722080231
-19706,2883882523
81620,9280228615
211286,24491787
354703,649544716
432588,79095459
401607,706717491
308236,570393562
233100,754267693
229312,669810295
289879,088622093
369873,077557564
437660,869951248
468502,64834559
434495,760855675
350702,869627953
264866,194005013
209085,811146736
192970,526539683
208148,130616188
226403,944573402
211920,118867874
162507,651789188
104164,280623555
48230,5207767487
5574,4042596817
-11146,7052488327
-9032,10669946671
-2229,43862950802
-2488,12217998505
-23874,7328796387
-67984,1546564102
-97473,9880738258
-84698,5988247395
-56569,9161911011
-30515,2045717239
4066,63703918457
45402,0017476082
81425,3355132937
100000,0682621
90401,5437669754
59747,7037906647
33675,8359613419
16665,5866737962
-2166,14441299438
-9286,0438117981
10835,6210708618
47670,621846199
80379,6670075059
92377,4636893272
70978,0391244888
4654,20825862885
-86101,3814620972
-119156,131103456
-46419,857114315
69063,5726165771
152409,164023399
195370,507787228
228354,740577936
276017,796928883
330210,111068726
362427,761695862
367334,014494896
350875,227155447
299149,050694466
219076,598617554
144002,16954565
94560,6560029984
76747,6108784676
87575,1686005592
109050,029238701
117850,458508968
118630,870883703
122227,585354328
109304,546506405
74112,782289505
35129,3048887253
1877,73196220398
-20848,4068465233
-30334,3864359856
-35795,1562385559
-52945,2114658356
-91195,6900880337
-150110,567810535
-216333,159955978
-270897,787841797
-302266,550067425
-304869,603392363
-291373,133065224
-287473,633164406
-297412,475208282
-312616,883030891
-330837,50847435
-347489,943273544
-344484,007831573
-285309,890411377
-180155,671106339
-118831,052342415
-148858,525804758
-215189,1798563
-243632,219960213
-211649,996286392
-121699,258062363
42650,3473492861
244779,075463295
377459,660189629
388439,404107094
320872,178064823
251655,131468832
236477,126689911
276557,78071785
332945,140312195
379984,770411015
402546,898974538
372896,306057453
296594,063632011
216123,523605347
164080,125143528
151856,508497208
172441,974710464
198304,208418846
193334,263123512
159643,702045918
136968,949624866
133969,661909103
132592,132359505
133594,871133804
146727,184143066
175618,583062045
213223,864980221
235168,071527481
216849,837325096
172398,283779621
130349,098827213
88744,5712556839
51605,6081037521
37843,5078449249
47730,4939751625
68242,7998033762
85071,4389848709
82515,3839712143
59109,4931526184
38333,1378574371
28028,3979317546
12763,2978358269
137,356309890747
6857,33550071716
26558,1606192589
44091,5195212364
47580,7663760185
25718,5185937881
-34747,4752492905
-127263,215203762
-180394,329447269
-121195,881425381
8019,34670066833
111186,301604271
157706,585999012
179341,896919727
213649,136842251
265072,785189629
302065,629605293
311847,744469404
322033,30072546
328371,641676426
297587,05738163
235748,479392052
178014,244553804
154298,226333618
175051,655344009
220104,536101341
246252,531439781
231903,91275692
197054,971848965
156898,272004128
107578,593657494
50928,935418129
-4205,39572763443
-44281,522974968
-58427,5914955139
-53969,0383777618
-43057,1672916412
-13998,6500165462
32709,8810491562
59568,0615501404
53946,8033304214
35520,4309225082
14426,4044678211
-7253,36590981483
-27417,3233385086
-50838,5951166153
-93161,026266098
-142647,264041185
-136697,189898491
-55750,1977558136
35395,5799341202
87384,3636026382
106380,858570099
118611,88604641
142035,000108719
168696,157118797
167026,443570137
121957,057772398
78600,988979578
79435,1706962585
95920,0632629395
91177,7140302658
70507,2005426884
60228,8540832996
79060,1651992798
117532,385332108
150379,294504166
172460,643334389
181635,579539299
156783,706823349
102164,705294609
46960,7053556442
7926,07908535004
-10126,3064720631
-10145,0682296753
-7969,79233455658
-26502,0423145294
-54471,402920723
-49582,9492709637
-12625,0839653015
19480,921626091
32763,2032308578
34892,7095935345
37903,5934243202
48782,0644674301
57594,7243814468
42231,7234077454
6257,89375853539
-16032,94769454
-16199,610118866
-15167,1597995758
-22420,9423074722
-34977,8797810078
-45724,1104605198
-47665,3179063797
-46390,6002454758
-56492,4007749557
-66508,4065406322
-50287,4715995789
-22669,9063634872
-12805,5597476959
-18976,8757753372
-26556,4816682339
-25074,5603027344
-12169,7930822372
-816,597441673279
-11548,7770576477
-42358,3112215996
-79399,8142781258
-124347,693585396
-170233,377140045
-203342,314799309
-225671,912824631
-242949,808015108
-257268,570221901
-270463,874788284
-269936,806793213
-231909,609045029
-164002,654094458
-101985,07703352
-61191,6842384338
-32800,0493602753
-10060,463303566
7914,88703155518
20378,2199354172
17744,600815773
-8129,39721775055
-35669,681851387
-46939,9616315365
-61367,3378410339
-83801,7821655273
-94952,7613048553
-90852,1885585785
-79589,4984499216
-69820,3248114586
-72206,5487966537
-88819,617647171
-117871,620763302
-168545,179785371
-234091,728210449
-284925,350042343
-309610,827890873
-324699,005283117
-346274,984768152
-372303,737563133
-385930,549502373
-388727,479025841
-412285,457084179
-465754,042338133
-514406,90649271
-497829,961853027
-392484,574311256
-273622,054399967
-223208,583679438
-230755,327879429
-237157,74203968
-189860,643508911
-67821,1163725853
81969,7806408405
179151,677093029
196330,651201248
158223,227104187
94212,1584153175
29416,658795163
-15419,2340769768
-36272,0434703827
-36402,3828172684
-8996,90181159973
31051,1454180479
46221,2193241119
34795,5388202667
21643,4067564011
16532,483549118
17952,8396227956
21682,5612154007
15202,4778938293
-24926,3176746368
-114379,175545692
-237907,23830992
-353591,184490681
-402325,683696747
-354014,571341515
-265860,959749699
-213124,831050158
-198870,170383453
-184235,700164795
-142904,420636177
-84866,8808274269
-48928,6286724806
-57808,8278307915
-101329,750893593
-155567,986627579
-195662,566266537
-216855,152766943
-232186,13839817
-242582,814305305
-247181,495800972
-257134,394304276
-277012,206669807
-298467,501700878
-290713,13329792
-228251,80461216
-159220,333821297
-149889,684037328
-184377,935391426
-196886,567434311
-135452,797374725
10918,3576440811
197117,098694682
349147,613103867
419828,511844635
414214,327688217
367422,15267086
318076,001224995
290958,483137608
281566,463341713
267971,934431076
247445,808374405
226061,810212851
191408,557589531
146694,522449493
114595,439460754
102527,619440079
105414,578306198
115471,057760715
120307,124060631
113441,111595154
97165,2499141693
64880,6593868732
16440,8744764328
-19976,0415697098
-20606,2537345886
6325,82998371124
38169,3454992771
54944,729581356
45568,8257246017
13352,5136585236
-41691,7871618271
-125742,13634944
-215253,264800072
-267891,980895042
-267539,469108582
-223760,777453423
-163793,978820324
-127485,154266834
-134478,754999161
-180206,642240524
-252520,397651196
-328737,944697499
-380930,901973248
-370636,038459778
-274920,387328148
-155352,447222233
-100794,219631433
-110492,943033695
-116141,698061943
-53110,643995285
97883,9789319038
276535,190311074
392522,314435482
416619,095329285
373012,147892952
291128,83675909
201912,92574501
135134,060719013
99901,784198761
90936,9378900528
120671,758477211
193485,614740133
266445,667967796
301476,614634514
305274,760529518
301123,233819962
306456,658886909
325682,469868183
343576,317238808
335873,97612381
299760,850835323
243139,982084274
167126,397984028
93374,4620485306
49457,2759742737
36531,3570189476
42582,4276447296
54582,098443985
58699,642911911
45551,1152229309
4548,47528934479
-72510,745105505
-164313,119740009
-231955,878921509
-255549,683599472
-237396,370703697
-201031,926552117
-180222,269226074
-186749,534462929
-216105,236133575
-264626,003815174
-320080,459075928
-359760,443741322
-342346,711600304
-246875,164723396
-142309,776256561
-111072,80398643
-138243,3565135
-154805,009693146
-127035,468346596
-64172,803691864
44824,5263419747
216410,420872211
381984,223532677
442447,806212425
391968,480891228
309407,54225409
275980,280935764
317092,296489716
392775,335934639
458741,797122955
513647,579280972
544059,472516537
515021,986253738
436279,560135841
356563,428661346
319013,518142581
338377,08834219
391570,893157959
427481,980708122
406555,770139694
328005,467642367
215336,253306389
103936,712217331
21341,4079065323
-30085,4335823059
-59213,7414658666
-74759,4069886208
-85287,7444734573
-92926,800740242
-103488,327737808
-134789,308012277
-182892,659190178
-216855,15877533
-219406,951540947
-196314,888074875
-166836,408502311
-159220,03673172
-186463,225094795
-218217,386126518
-190849,14902401
-83505,9549854994
49674,5446043015
159849,697551727
243056,575564384
304672,76556015
344203,373494625
358461,97205162
338401,105016708
268631,098002434
152549,504105568
55153,8138023615
47381,8226704597
106980,261916161
167002,919784546
201755,611536026
223928,962629795
251698,21066761
283589,018849373
292087,702623367
258309,03850174
219076,385130227
212245,214755535
211944,940737724
188483,633448601
153562,882091045
136932,62870127
157992,529121876
205791,255678177
245965,368280411
254297,011885166
223569,003544807
151803,252510548
59210,1687326431
-24847,6262311935
-89576,5385928154
-132812,622353911
-153282,846504688
-156250,442101479
-144365,544805527
-123456,102215767
-120852,038511634
-150397,23539257
-189451,313203812
-219212,016166687
-246507,210446835
-282165,698607445
-325099,515319347
-370770,003787041
-424208,56560421
-493389,706316948
-570465,312973142
-622377,769453526
-589737,363521576
-459015,010111809
-324216,457480431
-271475,986986041
-279176,8549757
-280433,524007797
-245608,704680443
-191543,173982143
-118647,991011024
3127,81432390213
139606,534032822
197274,906832695
150736,543282986
67319,5946952999
28482,7038712502
64939,939412117
144310,401241302
230997,713319778
321781,803383544
387327,039405346
380987,338793755
312484,396438599
235442,601229191
197526,456299722
215698,401926517
267534,976466179
301129,679274559
277057,940411568
203133,275762441
109758,149953842
21635,3355150223
-44856,2405614853
-86697,9904031754
-107800,058927223
-112744,450112343
-113701,971412659
-120969,656775475
-134725,560321808
-161345,339696586
-202428,215604782
-234761,220263481
-241118,593826294
-234235,166572571
-235060,613887995
-253889,609478951
-290696,712893486
-317682,073925972
-286692,784845352
-206851,084458292
-136575,825623512
-86556,4086427689
-29634,7318916321
37465,6651964188
95268,7423859239
122630,099784851
103525,375916481
35775,5289773941
-58065,6009087563
-128527,568587124
-131915,30405426
-78455,7730703354
-11161,0093679428
44027,3108539581
85592,0617896318
119959,520384789
141430,219025612
134066,367211342
114035,361601353
117152,334144399
129451,210755348
120605,605790138
99713,5828905106
88667,8907265663
98922,480302155
129641,752934933
163595,924789429
170379,74367094
135564,779886246
70519,0940006375
-11946,6314325333
-94319,8018398285
-159192,09933424
-207240,816512346
-242707,199351311
-263697,25570488
-273722,680164337
-283430,342873573
-303030,942800999
-339908,065667748
-390631,903747082
-439834,905913353
-472787,593498707
-480447,835373163
-472712,756074429
-473159,202445984
-483861,743552208
-493249,672488213
-499803,674424648
-504774,782444119
-505070,570669174
-476146,839099884
-397956,805177689
-324212,906476021
-323765,6761747
-376090,745652676
-407627,675715446
-380618,981122971
-312298,822163105
-213664,091024286
-63762,2452044487
102261,76552105
184028,561668396
144703,900410175
52450,2485647202
572,894418239594
30684,2673997879
114174,11597538
209166,984294891
293424,441079974
328797,027674675
288597,416665077
200001,527371407
112181,774615288
63779,0307061672
68366,4069266319
106557,101647377
142380,149266243
149863,506095886
122079,776523948
67280,9403162003
8834,17980575562
-26773,7937402725
-32624,5949344635
-17913,4557118416
2775,01606750488
8757,61388874054
-8884,70295906067
-43292,6873092651
-97455,4113515615
-166558,828494549
-215498,748156548
-219996,237259865
-195606,754982948
-173015,297097921
-172422,008842468
-198334,577202797
-223396,208882332
-204124,61704731
-145344,583905458
-85070,4447793961
-28656,6814079285
39773,7427330017
117361,696167946
185113,365075111
223918,090156555
216653,421498299
156348,943835258
62840,461774826
-14267,5910352468
-26791,8489198685
23339,8648738861
92174,2125043869
148462,537740231
190146,87234199
225674,545728683
253584,183608055
252890,224878311
220476,885365486
200816,042812213
213856,70292902
221897,882362366
204442,813031673
180489,772374153
176038,67378515
203610,122093201
249774,560840607
276536,293999672
257393,802998304
217622,754875064
187860,488748074
155308,738329887
106674,448115349
52643,6935083866
13817,5205130577
7307,48367357254
28114,5116033554
47998,9117798805
40292,9545872211
-2388,80297827721
-72404,2303409576
-151311,358977318
-225764,063240528
-299105,55700016
-373020,910339832
-433021,765619278
-455524,345565796
-441537,256394386
-429770,585538864
-445348,201035619
-472806,886875629
-467637,151761055
-391006,46704483
-283194,134806633
-229860,41308713
-244519,555864334
-272124,621850967
-270853,54503727
-243197,187567234
-197424,772475421
-103707,662428856
41093,8030815125
150036,071588516
149813,255047798
73819,323398456
9146,22052669525
11736,3230667114
71796,3499946594
159231,878086567
268769,723846078
368486,625656605
398269,754270554
350815,686488152
274184,20796299
223236,279484749
226538,225710869
270487,311481476
307732,840969086
299778,715903282
259524,136604548
214483,123951912
167296,668645859
123199,595716476
96173,6235580444
94327,1770576239
115483,682720184
139351,321791649
132749,689610481
77448,0787982941
-14606,6026549339
-115987,073461533
-196392,175617218
-240344,051992416
-260032,086618423
-275276,674553156
-293803,791584492
-312742,593523026
-320822,596020699
-288768,391324997
-205799,95656836
-115543,699265957
-48981,0611763
7652,1925201416
64304,9393987656
114160,566637754
144639,112934589
138793,296392441
87502,4660177231
12671,8699121475
-49266,8075628281
-71296,0956015587
-41268,45195961
18976,1543741226
76350,8427786827
120649,208951831
153583,674258232
170152,836790085
151962,010298729
88389,1501984596
24948,0816580057
27778,5979585648
82569,6141881943
123923,322175026
130359,266457558
130215,262710262
155634,613971233
208390,572983742
256528,77466774
266518,694081306
227471,512384415
143453,759287834
36000,137553215
-65902,1123495102
-150159,004366875
-212998,757882833
-246962,231833935
-253659,104086876
-243300,702648163
-211957,277236462
-165832,623661876
-140528,348381519
-147652,079251289
-168889,231358528
-195143,968882561
-224543,426992536
-253126,221519947
-280135,865552902
-316233,674912453
-376710,363918781
-458302,860665202
-536745,928776741
-584250,893562317
-579135,204673767
-537078,231143475
-513209,516363919
-529305,313631535
-555579,326986313
-566063,994111061
-562933,705457211
-551998,253667839
-500952,483052254
-372393,541083336
-223366,18546772
-158980,078770161
-190151,121196032
-237612,841450691
-231070,91960907
-165942,311590195
-77411,4462857246
28250,6272717714
144205,195826054
210585,974264145
187830,492913246
109270,573957443
41629,3130928278
33651,817346096
84639,1478624344
153989,500732422
203867,944149971
211272,731847167
160105,41788435
69327,9646625519
-16636,114025116
-72303,1079835892
-93268,6597310305
-86302,9437322617
-72982,9482212067
-81804,3383760452
-120697,121697426
-178284,81345129
-243616,492359638
-296153,648246765
-318236,568114281
-319341,585894585
-319419,218768597
-330214,59226799
-357472,41019249
-399997,292685509
-426834,674557686
-397536,851070404
-325839,206030846
-253925,0179739
-194308,807487488
-143528,768971443
-100259,216659427
-66536,8065986633
-54990,4599113464
-88274,7872743607
-180475,353631973
-306076,252802014
-396098,05405426
-407960,002184868
-376681,702382088
-354277,573928833
-351551,715877652
-352567,056990623
-346097,207256317
-343400,062325478
-366794,80684948
-403670,80542767
-410821,287290573
-388243,552792549
-379218,363500595
-404331,939948082
-442652,319630712
-460003,356843472
-443841,934561729
-415917,431319237
-414046,916068077
-457767,664722443
-534634,529465199
-619141,469905853
-698074,747544289
-775224,82106638
-849617,243858241
-904659,828474998
-928218,887984276
-931607,93628788
-939302,792723656
-962499,250059843
-990230,470760822
-1006985,3025465
-1016851,05008316
-1041113,62412262
-1088289,61648315
-1141816,26141453
-1179093,93092632
-1195769,74077702
-1205888,31988335
-1217362,06780839
-1223089,65066051
-1216433,35400486
-1207893,94286537
-1220619,36978531
-1262051,65433598
-1313103,07358217
-1350140,87101364
-1368162,81583023
-1379366,24604034
-1384487,89186168
-1353467,02074933
-1273198,3225565
-1190316,08503056
-1153714,4448452
-1159807,46830249
-1171446,57540226
-1159367,57713699
-1129508,29743195
-1110302,22420692
-1106820,79268646
-1099759,08596563
-1088231,51111603
-1086920,91978073
-1100422,50223446
-1115781,50306773
-1111716,88769269
-1081408,58491325
-1044760,15797997
-1034780,53160477
-1066417,10832167
-1122533,63602281
-1173344,54460335
-1205730,09863853
-1227578,88432407
-1245288,622401
-1252294,81073785
-1243283,74031639
-1231211,0331955
-1238638,13543224
-1270256,41267157
-1306430,46140957
-1323876,91098404
-1320783,57461548
-1316718,25396729
-1324263,68438411
-1336224,39591694
-1341058,11194515
-1341420,78552055
-1350836,84945297
-1371405,15018606
-1387749,60982394
-1384723,29277992
-1368203,55150223
-1361636,61052132
-1376050,98146296
-1398221,59175324
-1410465,55858326
-1412113,32421112
-1417914,69523811
-1433624,20029593
-1445342,11840606
-1438551,27246189
-1420353,35724831
-1414184,36121464
-1429744,25477076
-1451883,9480195
-1461392,7416296
-1458287,69740486
-1458756,72583008
-1469919,57832289
-1480344,51134861
-1475748,39669514
-1460198,11052895
-1454701,91492653
-1467306,08216333
-1482213,49308276
-1482662,36227703
-1471082,41353798
-1464982,75946999
-1473435,94217825
-1485545,45605445
-1485108,5798769
-1471741,14510155
-1462653,4335413
-1467531,68077087
-1473781,85473394
-1465768,86903667
-1448220,14850903
-1440400,17183113
-1450056,21349382
-1463645,34909868
-1462242,68743658
-1445862,35026455
-1433852,44346714
-1436575,23720455
-1442831,50449085
-1437874,86751556
-1424282,60204601
-1417418,38595009
-1422276,92398596
-1427077,32053566
-1417523,11775064
-1396751,75086594
-1385398,5758028
-1392157,80196953
-1401643,99815702
-1395334,08943462
-1374166,15925694
-1356860,89722252
-1353960,01574135
-1356302,93703425
-1350080,80032921
-1335831,07731342
-1329319,19633865
-1337191,96846771
-1343800,76074409
-1331449,78237057
-1304807,84819126
-1282110,51120663
-1260130,64808559
-1222292,0936904
-1173963,05575085
-1133041,24576473
-1109047,54426193
-1095763,37400341
-1075078,54693007
-1037903,53462887
-998810,324189186
-983729,665352821
-1000734,50592947
-1031622,97074008
-1051239,60582304
-1051230,75462341
-1044290,74914551
-1040245,069417
-1031896,54892254
-1011272,02945805
-986485,518511772
-975184,962335587
-983156,569675922
-996005,972484589
-994084,227395535
-976655,719184875
-962520,138595581
-962668,815190315
-968159,858987808
-964239,629436493
-949496,742529869
-938001,612425804
-937353,338002205
-936382,54986608
-921093,569564819
-896680,610072136
-884896,729716301
-894578,342998505
-909118,522133112
-908798,853667259
-894788,075377464
-884297,545735359
-885010,568738937
-885618,244308949
-872216,376749992
-849630,465748787
-838848,135531425
-848031,06280899
-860873,402647018
-858122,943410873
-841058,157061577
-827687,386831284
-827169,420909405
-829321,859739542
-819733,696471214
-800350,078605652
-788781,888705254
-792556,945323944
-798114,476390123
-789337,383845329
-769184,599583626
-756809,685401917
-760516,535140038
-767050,266197562
-759737,73919487
-739635,041335106
-725103,915449142
-725967,694097996
-730402,347607851
-723084,881357193
-706194,423014641
-696555,344508171
-702047,951457024
-709946,495131969
-702041,940541267
-679122,19797802
-662189,809326172
-662666,861047268
-667898,042633057
-661467,250473976
-645675,034880638
-636764,611704826
-639996,623309135
-642494,517804146
-630145,037287712
-607139,55324173
-594205,585771561
-599580,525871277
-607774,545204878
-601937,946989059
-583584,417051315
-569585,362050056
-570027,729001045
-574808,375709653
-568147,684479237
-552074,896024704
-545133,36796093
-553986,685919285
-562188,601229429
-552161,240060806
-527848,945680618
-509926,960174561
-510138,577735901
-518247,218458533
-515684,689630985
-500795,596801758
-491074,789406776
-494355,005714417
-496909,271463871
-484165,266722679
-461395,543826103
-448643,855613708
-454494,609039783
-465914,689366937
-464217,325676918
-446904,707421303
-431438,861436844
-429601,494443893
-431387,827224851
-422164,606425285
-404880,293333054
-397161,976608276
-406269,11280489
-417719,497920752
-412049,815534592
-390621,588118553
-374833,987148285
-375138,821805954
-379339,574915648
-372236,442564964
-355435,977554321
-344452,536501884
-345791,916246891
-348101,158504009
-337199,507557869
-315815,343822479
-303870,219072342
-310793,307288647
-321780,766658902
-318544,906586647
-302488,025425911
-291194,193744659
-293303,488013744
-297544,725206971
-288411,709479332
-268938,894132614
-259548,434074402
-269152,68183136
-282276,401004195
-279494,014126778
-261622,829592705
-246989,10847187
-246492,487226009
-251676,201722026
-247975,392590046
-234710,455552101
-226491,500509262
-231132,278812408
-236883,894363284
-228217,542620182
-208914,462252617
-198973,722061157
-206821,172655106
-219100,065873623
-217467,400857449
-200549,768694878
-186623,929989815
-187136,687269211
-191538,342204213
-185170,009705544
-170392,696016312
-164010,574109077
-173392,003142357
-185397,604770064
-182173,091852188
-164546,023173332
-151859,055855751
-154145,357349396
-160550,375118852
-156769,527019501
-143934,882815361
-136158,742024422
-139790,906602859
-144155,020485282
-134943,206986427
-115331,942159653
-105747,447061539
-115716,814771652
-130338,702849746
-130593,035959721
-116489,487838745
-104750,726373672
-105749,335235596
-110889,038705468
-105697,748126984
-91189,1283340454
-85190,6249256134
-96338,570479393
-108730,252467752
-103290,085860252
-83566,1918058395
-69451,1907844543
-71168,3101987839
-79750,7944513559
-79835,1383104324
-69713,9008712769
-63713,9777603149
-69112,64498806
-74721,4702066183
-66502,5818729401
-47931,2671890259
-38336,5516710281
-46935,485250473
-61011,206558466
-62056,2095475197
-47851,2442541122
-35798,5709533691
-37404,5025858879
-42332,2074656487
-36213,8321151733
-21946,4105739594
-16680,2123937607
-27961,0857377052
-41961,1938310862
-39978,0009760857
-22310,3697328568
-8963,89682579041
-12305,1381001472
-22138,6646313667
-22246,0947880745
-11605,7200250626
-4092,81316947937
-7528,49570131302
-12423,2284226418
-4985,10444450378
12103,4722757339
20328,9504032135
10857,4131999016
-3221,27275133133
-3763,78905963898
9146,22692775726
16939,4447841644
9129,58235692978
-1530,99408614635
2866,79754400253
19841,0483665466
28478,6336736679
17919,4033284187
1762,3015639782
276,360350131989
14350,9127368927
25358,6508026123
22213,5555195808
14235,1029362679
16329,4999732971
28039,7140903473
32575,716958046
22983,0618748665
13643,7029869556
19579,2851552963
36959,8148269653
47042,9117641449
39000,2999982834
23349,6234322786
19166,0759940147
30282,6320133209
39991,5470247269
37101,2954654694
32280,403018713
39048,0668230057
53537,5832471848
59120,6169672012
48676,0235319138
34559,1535464525
34150,7069072723
48226,3753557205
58341,9549474716
53053,7914943695
42703,6147379875
42653,2788681984
53273,5772371292
59568,3624773026
52430,4457268715
41731,5172230005
43257,1056861877
57105,735868454
65672,2088718414
58788,9335298538
47551,7609286308
48367,2421264648
61168,4847278595
69171,4981689453
63264,94379282
53843,0652868748
56088,0200352669
69324,527472496
75572,8535547256
65788,5789871216
52806,3696050644
52973,1358885765
65831,6011180878
74824,4254131317
70285,8884606361
62818,8900059462
68374,1579661369
84973,6040973663
91748,3425216675
78288,4153590202
60237,8520418406
57551,4044332504
70040,7752571106
79309,3176002502
73784,1622047424
61978,9677087069
59573,8374009132
69198,475030899
75586,5007324219
68610,4416627884
59419,6925889254
63026,9313664436
75973,9539794922
80926,9200973511
70387,2477531433
55597,2166481018
53809,2228512764
67241,4888067245
77968,3588294983
73962,4669585228
65423,6216839552
67464,9923801422
78096,1224489212
80957,0508203506
69692,9915690422
57474,7500908971
61146,906727314
78872,7341089249
89271,5764522552
80104,4614691734
63315,1474146247
58398,664937973
68763,2261581421
77350,9147119522
71434,536383152
60129,0205571055
59805,2215414047
71152,0462217331
77434,544467926
68059,3991074562
54144,1749216914
54221,7178068161
69170,4303026199
80842,0987520218
77134,5065512657
66093,2489625216
63735,0077772141
72249,9806413651
75753,2306060791
65755,6272306442
55714,9115899801
61334,6266961098
79068,0513181686
88907,8507413864
79788,1403560638
63213,820256114
57333,778439045
64985,8644609451
71134,8860120773
65564,5578989983
58009,4570184946
62281,7951564789
74942,822259903
78850,8898801804
66275,2248826027
49029,3967001438
45730,3139014244
59048,8059606552
69763,9314651489
64186,9202413559
52380,8525255919
50928,7808241844
59983,507437706
65352,1734848022
64445,6250472069
71637,7902348042
95052,0174279213
124819,416502953
141996,254276276
139153,877254963
130376,965937674
133752,801900864
148335,568602562
154907,414167404
142965,823562145
125328,150255442
119733,491413593
126681,624228477
129517,761078835
118005,842094421
103663,388132632
103791,2894907
117458,446122169
126244,822911263
119656,472782612
107708,936830282
105860,539850712
114257,078346252
116582,307665825
104292,952096462
90346,0635424852
91852,9641718864
107405,993341446
117863,574585915
111161,535573959
96239,3188573122
89976,2884678841
95988,8184585571
100217,167216301
92426,397043705
82279,1526566744
85328,9076094627
99675,4330358505
106798,898563385
96997,9732580185
81324,9149907827
78018,733402729
90291,1830530167
99744,3959665298
93038,4006400108
80132,7891747952
76909,7137241364
83151,1774082184
83280,3032960892
70416,1917319298
57781,0399162769
61440,0459032059
79193,0847454071
90400,3091955185
82001,7212677002
65720,142649591
60886,924823761
68444,6758546829
72740,9168462753
66091,8922700882
58030,8873924017
62149,3709077835
76674,4971818924
82556,4163513184
70420,9114518166
54549,0729250908
52750,4005494118
63650,1115083694
70014,6243047714
62738,7396473885
50608,0272774696
48447,8184719086
57777,2494058609
62006,7008504868
51068,4137201309
37467,5950468779
38982,0061602592
53917,596113205
62143,2840795517
52760,5133686066
37250,7185006142
33344,0926904678
43041,7487010956
49229,6211366653
40295,3169460297
27175,0591202974
27460,7628779411
41409,0824298859
50968,096118927
44140,681581974
28979,5744786263
22332,6620197296
28879,4328212738
33319,3395633698
24212,5407376289
12090,2453548908
12512,0551357269
24057,9881238937
29663,6713886261
20520,1668496132
8440,1392365694
10182,0558247566
25736,0432758331
35963,2632799149
27827,3666505814
12046,887406528
6996,65094661713
14610,3354654312
19295,8595142365
11565,8276844025
1776,72393625975
4482,94423484802
17921,4316043854
25048,9865398407
16124,2770476341
1316,70815140009
-1952,87005805969
8837,85363197327
16518,4859409332
9480,32890987396
-2804,15525656939
-4718,63031291962
4281,28444194794
7451,14873027802
-3431,23008728027
-14670,6551738977
-10429,4792256355
6409,32952404022
16310,6255016327
7421,48388338089
-9175,30376374722
-14662,4773373604
-6070,40588188171
1529,3525056839
-2802,64961624146
-10812,1614813209
-8361,19706487656
3314,35502433777
7677,41381549835
-4142,95355653763
-20880,5109149814
-24461,1518735886
-11699,4438648224
-214,60883140564
-3992,82046842575
-14531,173654139
-16043,9336161613
-7408,27771568298
-3545,23224925995
-13700,1018395424
-26741,7317504883
-25044,9927453995
-7902,42419528961
4537,03599739075
-2572,21517848969
-18466,873513639
-22406,3483252525
-11380,2936506271
-2311,27103042603
-6536,04359912872
-15296,3922212124
-12819,8569507599
1148,04346179962
8359,74241352081
-1912,10867071152
-17312,0675692558
-19506,7321472168
-7793,26514434814
1201,48677062988
-3113,2279086113
-12874,3150095344
-13643,9458503723
-4019,58452415466
146,945032119751
-10969,4968590736
-25029,4504619241
-24049,0297231674
-8117,24510765076
3566,2283372879
-2284,13177204132
-16519,7187390924
-20165,0682501793
-8629,73696422577
1307,34324645996
-3562,80577087402
-14258,0606566966
-14645,8810706139
-3916,28637313843
1459,65400981903
-8007,48738670349
-20276,5359370708
-18828,2599992752
-3158,44472694397
8874,20731544495
3557,81386899948
-9202,0588234067
-10264,1914429665
2663,570063591
11258,4950523376
3084,8403506279
-10587,8804230392
-11949,6517720222
637,433393478394
10383,8822145462
3878,36409473419
-9820,09121599793
-11757,9386525154
-131,585308074951
7618,78201293945
1152,20242166519
-9640,98259755969
-8900,57832670212
3734,88243103027
10016,9729290009
-906,391986370087
-16407,7646785676
-17426,159476757
-2851,23419761658
9123,50011634827
13845,7664489746
37989,5515038967
95198,6423444748
157032,952619553
192552,228221893
202569,611830235
212306,238644093
242953,659935951
286779,704349518
314084,192546844
305809,953290939
271486,804406941
235933,286638737
213177,649586678
197837,098692894
184531,046570301
180872,94765234
195468,77200079
220297,365380287
232691,717412949
220651,103426456
196278,370723009
181787,52637291
185091,929261208
190472,986968994
183009,679329395
169817,987449408
165882,44170475
172028,150614738
173352,587942123
160597,028259277
145590,005250812
146420,932988167
162477,280636787
172613,953582764
161705,058094978
139200,207069159
125419,891469955
126218,139415741
128327,319918633
121116,183954716
111768,40756309
114544,683710098
129237,361132622
136807,160445213
124341,925835133
102838,723454118
91709,8002676964
94523,1654510498
96223,3623714447
86417,6450195313
74968,7224215865
77201,7822942734
91302,8303031921
97398,8592090607
83229,0753312111
61135,4192548394
51653,2364134789
57832,2362937927
62854,0365943909
54396,7453336716
41359,25295192
40274,7360548973
51685,7094993591
58684,9452447891
50272,6345391273
35606,4826802909
32080,540394783
41506,4394130707
45933,4652862549
34540,4314241409
18413,5663068593
14429,0078482628
24901,1487951279
33966,2046737671
28560,2233309746
16623,4838256389
14363,5118708611
22736,9854860306
25447,7449331284
12210,4354791641
-5727,08335882425
-10063,71180439
1662,1108455658
11967,9778699875
5978,16564464569
-8456,66119800508
-13112,7297801971
-4763,66986656189
1487,39675712585
-5580,56242275238
-18141,0438445732
-20449,9768857956
-11096,7340517044
-6975,71703910828
-18782,3559603691
-35065,5687858611
-37494,0288038254
-23850,1376447678
-11547,1086578369
-14743,2594799995
-27152,6165315807
-33439,5072178841
-29569,7710418701
-28848,0629940033
-41464,5020360947
-56451,8873954564
-56189,3550801277
-40332,2680845261
-28103,5376777649
-34464,5978593826
-51146,0066701621
-58212,4819560051
-50644,3248186111
-44495,3004665375
-51491,3054599762
-62062,0803094506
-60602,4311704636
-47768,8610200882
-41086,3129720688
-51553,5103287697
-69617,2682318091
-76791,1813116074
-67184,790599823
-56706,7086238861
-60255,0662193298
-70438,7634749711
-71738,1411805153
-62886,090306282
-58830,5898685455
-69660,9948582649
-84621,8559673727
-85240,5516414642
-69574,1634788513
-56010,559217453
-59858,3410248756
-74162,1900579631
-79927,4111528397
-71502,9411096573
-62943,9212036133
-66125,834625721
-74660,5972767472
-73523,6343636513
-60275,9749698639
-52107,4274291992
-61881,7873649597
-78966,6224540472
-84656,6086015701
-75667,8728876114
-67862,9456977844
-73774,9628033638
-84700,3117300868
-84390,0466017723
-72480,5849552155
-66673,5003032684
-77948,52622509
-94045,1359895915
-96145,8312139511
-82604,8801679611
-70404,3418464661
-73859,7616481781
-87737,7878613323
-94756,2045812607
-87031,3145570755
-77303,530380249
-79680,4342346191
-88141,5949958637
-87889,550599575
-77458,354801178
-71242,5263147354
-79013,1258683205
-91937,6016356088
-93836,3207259178
-81059,6102666855
-69548,0064125061
-73440,8514943123
-84132,4003605172
-84377,753885746
-73209,9146232605
-66693,0545825958
-75450,5983552933
-89983,0996449171
-92555,5570139885
-79912,3916292191
-69162,5888338089
-74958,415851593
-89660,75274783
-95015,378575325
-86930,5606603622
-80369,2705307007
-86335,0572414398
-96692,7216063645
-96058,6469612122
-82588,1010150909
-73519,5344362259
-81601,4032211304
-96807,0972742736
-100624,057668209
-89165,5840358734
-77821,6424684525
-77031,8817195892
-67159,0864231195
-27151,9626984596
24857,6932191849
56154,1965417862
61157,2845349312
63028,3565539327
85062,8173909187
124164,130535126
154282,463445663
154556,597757816
129964,088828415
102454,139019966
85310,5811977386
72717,9669332504
58437,5392994881
50801,7387242019
61430,0949707031
85487,9366006851
100197,741455078
91517,6420125961
71475,1735681295
61216,5289263725
66430,8697357178
72282,6601600647
65277,5394511223
52649,5389597416
50154,7886548042
58663,2881202698
61962,3990974426
49840,3874173164
33794,6890982389
32732,1036000252
48611,7562417984
61965,9097700119
56474,0636343956
38934,0539924502
27955,6337413788
30550,5192203522
34444,6637821198
27990,6224389076
18094,4074991345
19556,5549063683
33527,2318992615
42545,5767307281
33177,7686653137
13972,899520427
2974,51866531372
5128,53022384644
7084,45778274536
-1087,75688362122
-10302,9681681395
-6518,60705375671
9105,99893665314
17669,3591241837
5686,87808847427
-15462,6983366609
-24503,734691143
-17083,7056436539
-9391,31233406067
-15263,1358618736
-28916,9041600972
-33757,6072831154
-24720,569149971
-17466,2310724258
-24949,3760194778
-37500,7968982123
-38496,6585159302
-27072,5031938553
-20365,8072147369
-31288,8764810562
-50268,0157425553
-58087,8194355965
-49735,9245672226
-40411,1608161926
-44423,1391282082
-54589,4889597148
-55147,9292678833
-45798,5419492722
-41728,8533248901
-52600,8688607216
-69212,5027229488
-73402,9086823463
-60897,7674589157
-48906,3915786743
-52475,3809251785
-64990,5553501099
-69340,8120598793
-61218,2234544754
-55074,3852128983
-62398,3881921768
-74992,3287400305
-75945,9759373665
-62568,1717634201
-53139,472949028
-61748,2056822777
-78579,320483923
-84891,1479997635
-75635,251376152
-64843,3424921036
-66888,1051359177
-73460,0239172876
-60362,3079094887
-24751,5593128204
3836,72389793396
6234,21410131454
-1436,3498762995
7028,73681783676
36491,1432514191
65385,9055118561
71721,0668320656
57151,1808871999
39517,0233736038
28889,0094127655
18772,7422237396
3248,14497184753
-8162,6939766854
-1667,80725240707
19480,9153146744
33777,8476314545
26586,4430541992
7548,6375092417
-1527,34969234467
6493,45899295807
15576,2779874802
10723,8424491882
-2447,77260859311
-7623,93947029114
212,678136825562
6894,13288116455
-1222,34188938141
-16583,99200508
-20009,7986783981
-7633,14195537567
2923,58540058136
-2683,52652740479
-17862,7947155684
-25901,0031409264
-20812,7586212158
-14842,2388715744
-20067,3609933853
-29948,4617706984
-28597,7275562286
-14050,0307855606
-4653,64522457123
-14680,9085822105
-34191,7700365409
-43437,7594208717
-37958,6015396118
-32863,0221395493
-40667,5640625954
-53236,3470066078
-54062,6303324699
-41258,0144081116
-31886,3292808533
-40056,790828228
-57387,0427133292
-64750,790128231
-57808,7757892609
-50265,117682457
-42911,0992588997
-18501,6144260615
23148,050216198
64109,2016792297
89710,7211780548
99454,0249319077
108673,792007565
131665,670844078
162623,960158348
177038,563035965
158523,685498714
119241,200361975
86702,4639086723
75690,9801969528
75809,5822257996
72342,2169156075
69142,5402290076
77030,8597698212
93052,978934288
100642,196720123
88443,6164331436
65592,578038767
53081,0206255913
58281,9936542511
65440,578836441
59067,4181280136
44493,5435171872
38026,3433585167
43840,6164064407
48430,535692215
41647,9082713127
31172,801385954
31592,1968708038
44030,3748970032
50479,3416967392
36987,5541300774
13039,1631694585
-1553,02040958405
72,7013006210327
5901,78578853607
3336,75481081009
-3151,64583101869
-872,137115001678
10515,2265758514
15012,4874658585
1340,55488491058
-19382,0646673813
-26470,6622428894
-15326,0221271515
-3185,92574310303
-6477,7201757431
-20882,7722832169
-29432,8284358978
-25708,1457052231
-22447,270108223
-31147,9572196007
-44550,7212862875
-47291,4867553711
-37415,4433097839
-31049,1180925369
-40125,7391500473
-56379,5487570837
-62982,0409245491
-54446,1899824142
-45034,9303474426
-50101,2575211525
-63766,6820155084
-69471,1816391945
-63880,4541139603
-60485,1149253845
-70325,4813041687
-85762,8522193134
-89319,086309433
-77078,1791028976
-65918,246213913
-70788,0230183601
-85248,6068504751
-92588,5643148422
-87689,6445617676
-82710,4405565262
-89010,2809243202
-100155,304299891
-101007,144968033
-89185,3871965408
-81026,7592773438
-89629,7679958344
-106227,583131254
-112799,622364044
-104859,111786842
-97307,297709465
-104600,501475334
-119808,315700054
-123835,518136501
-112348,827288628
-103256,924302101
-112136,936238289
-129931,743376195
-135782,68987751
-125129,534508705
-107442,900145531
-74289,6815137863
-15588,869351387
48518,4737586975
98371,9635181427
131486,919663429
153295,167283058
178017,782539904
215358,901916027
254353,595956802
267637,986400604
239709,425272465
186193,931816727
138875,456466675
117660,607383728
115730,965825081
117223,278375626
121827,054420024
137077,069846153
157701,45841217
164891,167964935
147983,221650124
118987,902376056
100569,556147575
101055,635543823
105147,903105736
97209,4424171448
81821,9068263471
73643,8350715637
77008,5526981354
79934,730506897
71739,8728637695
58951,7537494004
57053,0358552933
68703,2718105316
74492,8213224411
58381,1394319534
31391,9587261975
15017,4519600868
16233,4714193344
23540,9688596725
23869,2825880051
20240,1583420038
24503,4263195992
36685,9783725739
40088,2574138641
22302,4599833488
-5416,74689850211
-19766,0886416435
-13195,7968444824
-1104,63860225677
5710,18388271332
14851,8415822387
32941,5007762909
55207,7660131454
67669,9469547272
62738,6362543106
53224,5256765783
56699,4396929741
73483,4024677277
83666,8590707779
70310,5061402321
41835,0520326532
20909,4419789314
18292,094619751
22629,637421608
18583,4471459389
9211,12412251718
8156,96800899506
16113,1286621094
18065,6286020279
4478,62429380417
-15651,5714989752
-24450,8818750381
-15641,6215982437
-5575,44810771942
-11579,0163440704
-28124,2853918523
-37869,1865963936
-35076,784869194
-31853,4296541214
-39412,7698698044
-51624,9929696918
-53796,8498044014
-42362,2470216751
-33424,1601657867
-42676,9981832504
-62368,8560930192
-72603,9099907875
-67476,0627841949
-61711,9057130814
-68842,827299118
-81553,5868157148
-83705,5744976997
-72907,1155061722
-65228,39174366
-74587,9267640114
-93288,4692762494
-102105,327865124
-94928,9131765366
-85832,1868267059
-79805,9025292397
-51647,8164778948
11224,7739858627
79096,8153543472
120119,311152458
134406,355124474
147024,088755608
179111,292684555
224793,077108383
254975,890933037
245426,315879345
202453,649412274
154540,902410984
123365,060077667
107446,60951519
95974,4235391617
91353,938713938
103098,517715931
125889,871499062
137654,153972626
123747,566680431
95315,4258405045
76110,5465164185
76442,7797498703
82894,5682544708
76683,8952775002
58678,2367673218
46441,54165411
47247,3039836884
47648,8468904495
36737,7081985474
22709,0828331113
21597,2519164085
35843,7603378296
45020,6208744049
30681,2360062599
2817,10125216842
-14986,7791075706
-14725,5793247223
-9000,19448757172
-11057,0540060997
-16359,6328635663
-6502,80833530426
23100,3792963028
46682,0498895645
41433,7462396622
20303,0855752453
12744,4060134888
28385,8535308838
52085,6073656082
78692,9499287605
117954,542213724
162661,199460506
197216,442411423
214123,156447411
216076,23214817
220371,346086234
242634,292586327
276201,587033272
294161,500260353
275861,653765202
230369,227719627
186084,537115574
162272,975712776
155112,946892738
151081,012541294
148858,934042476
156250,452933788
169541,73690033
170940,699709892
149508,565559387
116554,399186641
96338,7293391228
99802,4043874741
110692,887456894
108838,101486206
94737,4927842617
81364,8386907578
75553,488702774
70985,5470342636
60648,6912288666
50542,2135949284
52862,2858066559
67835,7183485031
76226,781671524
61610,8664741516
33311,9607701078
13104,1516394615
9298,3172082901
10441,8346118927
3339,35622406006
-8236,65898683667
-9788,64116239548
1294,80278873444
7594,00667285919
-6349,61255264282
-33129,8898634017
-51597,1143860817
-51973,0236253738
-46815,9020690918
-46374,1317501068
-32371,9094495177
11934,2901592255
66132,9310836792
98025,9977149963
101592,051646233
99491,0065497756
115808,965811253
150408,6280756
177470,107772827
171610,197943687
136382,952527225
96708,5871067047
71273,1292362213
57736,2332048416
45673,5283865929
38398,7697750926
46468,932390213
65543,3147182465
74672,8339204788
59719,4743757248
31320,9014641047
13109,504652977
15081,1767845154
23553,0510530472
20256,9691004753
5077,86613288522
-6839,6737165451
-7795,00671291351
-8088,20896625519
-18185,0744080544
-31557,901458621
-32515,4578294754
-18661,1271905899
-10366,6516170502
-25184,0359225273
-53180,7505403161
-70814,3562679291
-68965,9169139862
-61007,6921224594
-58802,4406909943
-44383,6875427365
3149,01072835922
63801,2116298676
102079,812914848
109812,938027382
107671,162193716
121966,752757549
155939,682240486
185637,914299011
187734,542094707
162369,256260365
128400,618390083
102770,736094475
83808,6840801239
63712,8255147934
49522,6396401525
53794,6157689095
74693,0414161682
91649,8771076202
84146,1182904243
56331,6189170182
31385,1342935562
23315,7975063324
22902,0104084015
15430,4504718781
3498,46793312207
297,225865840912
6435,99140930176
5834,30177497864
-12032,5545945168
-36830,1792501211
-47608,190527916
-36701,9598836899
-22052,7660741806
-23847,2773833275
-40894,7823627889
-59294,749707222
-69713,7178182602
-76011,1407957077
-85609,255256176
-94182,8956779838
-90182,4824261665
-73377,4575824738
-62107,9199323654
-72888,8627715111
-98543,6958755851
-117474,317494869
-120070,501318932
-118368,305807114
-125631,465219498
-136635,002190471
-137377,755031109
-125539,082415581
-116924,349000931
-127264,968114376
-150342,178852558
-165749,899315357
-164500,522087097
-157698,448932648
-151583,840675354
-131945,883124948
-92359,136692524
-49490,9263439178
-23567,3663253784
-17522,4236335754
-13812,4674222469
5591,85783004761
38295,8393831253
59663,9192142487
48050,0389795303
10891,440926075
-25409,6966915131
-43786,8234500885
-49583,9759531021
-55457,7330083847
-59842,0008807182
-52134,630464077
-34653,3023023605
-26444,5119342804
-40886,5190691948
-69163,7061243653
-88891,6456518173
-88246,1305952072
-80700,9880886078
-83805,9995307922
-95553,3587707281
-102554,006540298
-99517,8728160858
-97537,8314218521
-107122,668822289
-120735,064479947
-122522,001349926
-108738,429538727
-97197,0753526688
-106577,358068466
-129751,080092907
-144219,399990082
-140238,729288101
-129464,36449337
-127459,603205204
-132671,648663342
-130944,572758675
-119726,366513252
-115278,029921532
-129645,155975819
-152996,026369452
-164123,854643345
-154500,878229141
-139171,095186234
-128426,287347317
-100851,1551525
-41793,3676276207
22770,0904159546
61730,0296764374
73637,0878248215
82725,9568458796
111885,243024826
158100,954294205
193399,895785332
191924,800943851
157961,422256112
119076,007906437
95412,0537586212
84449,8084001541
76531,8768787384
74395,9686443508
88003,6670341492
113402,180293083
128103,265779495
116378,376932621
87712,3295525908
66235,3564567566
66469,7539348602
76515,2753248215
76549,2121315002
66224,8803945184
58424,9216170311
58903,2690734863
58110,1527633667
46757,0504584312
33666,9337888956
35568,1117033958
55498,6878452301
73622,573846817
67857,7452511787
43389,6433289945
24380,3272199631
23292,7624969482
29850,2733402252
29261,7516393661
22595,067862004
22506,4209470749
33959,4279136658
43006,947687149
33711,2197451591
11792,4876495004
-3603,35530757904
-4113,72087478638
344,531872749329
-3364,01227378845
-13719,6294023991
-16794,3168950081
-7085,76009750366
-484,380867004395
-13561,8422217369
-37702,6817383766
-50795,3784708977
-45054,9194469452
-34912,1413097382
-38255,5009393692
-53238,7094368935
-62469,7320022583
-58056,3052406311
-51936,9727058411
-57218,2626752853
-69224,7624291182
-72704,0494031906
-64219,6120328903
-59524,7589836121
-72271,4669909477
-95147,2335971594
-107504,840464115
-99183,1069345474
-85004,796962738
-83655,6283283234
-92736,7898004055
-97904,7360138893
-93906,8666229248
-91700,8755216599
-101893,99834156
-116880,413892865
-119812,64018631
-105705,614612579
-91636,824005127
-97108,441754818
-116040,550985098
-126937,801103592
-122344,239570618
-115130,45628643
-119450,603470325
-131896,858851194
-137210,349895
-131144,379634857
-128381,283289909
-141653,656750202
-162166,400177002
-169177,595038414
-155601,803390503
-135201,351276398
-110643,050857067
-69022,7122901678
-18405,2321038246
22316,1523151398
47381,2257804871
61986,123401165
80381,1219092607
114788,037574768
156286,498657227
175486,4428339
153942,759144783
105285,016210675
59796,1854991913
36781,962141037
30686,6353778839
26956,8603954315
25068,523250401
34257,4012351036
52340,5696401596
60299,9093589783
44932,1683359146
15850,9698404074
-4759,92639780045
-4515,01396846771
3834,24475860596
951,520978927612
-12558,1531975269
-23554,5743684769
-25259,3268890381
-24053,0593671799
-28823,3843550682
-36081,2560756803
-34151,7079854012
-20725,6906795502
-11788,4016084671
-23714,0602359772
-50199,9698622823
-69663,4428696632
-71189,1707105637
-66093,4276666641
-69513,6388034821
-78757,1407625675
-78925,9149503708
-65093,4610176086
-54254,9975709915
-64723,4561100006
-90475,1276664138
-109648,503816128
-110330,798765182
-102227,009279251
-95053,3005113602
-76262,1227273941
-36203,2302865982
9139,95425128937
37108,3464508057
41203,5013952255
37679,0179994106
48413,6131973267
76133,7330532074
99547,7709121704
95438,4293642044
66349,8687582016
36236,0777411461
21407,3739480972
15848,4544868469
8337,31112194061
2273,04211044312
8888,64506053925
27268,6942949295
38966,3935956955
28831,976167202
3953,51918756962
-14276,6329789162
-13472,2456235886
-4555,73673439026
-4952,84393882751
-15177,9414498806
-22596,5929870605
-19514,5506391525
-15124,547829628
-23243,8967833519
-39638,482894063
-46133,5375752449
-35174,9594535828
-21451,3042411804
-24582,2294354439
-44111,2072277069
-61353,8855099678
-64765,3936300278
-62341,6245546341
-65956,998986721
-73579,8659060001
-72427,4777755737
-58715,5070905685
-48924,2832336426
-59411,4345979691
-83065,1310158968
-97842,0074896812
-92577,0752925873
-79772,5728902817
-73970,4172096252
-62906,5971618891
-29006,0729184151
15082,1044120789
42236,6190280914
45240,0921239853
43312,7795473337
59039,4257340431
93611,2465686798
123550,481856346
123978,632448673
96655,0351895094
65530,2564063072
47918,0224676132
39515,7144079208
29976,84826231
22191,5183217525
27462,8592715263
45726,5292348862
58220,8724870682
48720,5186028481
24068,106020689
5869,61231327057
7229,49763965607
17445,7354955673
18093,1645259857
8417,17458570004
532,269462108612
1363,25418663025
3963,80550098419
-2071,77990722656
-13166,9965723753
-14893,3279881477
-2035,51791763306
10167,4694910049
4316,31701898575
-15085,5032573938
-28458,3094201088
-26556,9479751587
-21096,6734104156
-26587,164557457
-38418,686964035
-40162,919573307
-26813,1375131607
-13814,6282787323
-18557,190975666
-37111,1073719263
-51303,8065738678
-51955,9004840851
-48442,9421825409
-53320,0305094719
-62701,0571855307
-63620,197394371
-53370,8339271545
-45115,4340314865
-53154,8349256516
-71790,6917378902
-80184,110250473
-69688,8933668137
-55132,8970756531
-55133,9274559021
-69123,3622889519
-79645,5759043694
-75616,6859750748
-67384,219083786
-69893,8089203835
-79724,2418072224
-80538,7292809486
-67509,6533956528
-57157,0277786255
-65250,191368103
-85947,3981406689
-99390,9676823616
-93793,4656744003
-80625,9475269318
-77777,2197656631
-84193,9412463903
-86739,7789440155
-80293,4950561523
-76079,5095901489
-85869,0219516754
-101348,023132801
-104295,482602596
-88920,6171655655
-70692,3465938568
-70779,2037520409
-87533,144446373
-98889,3413853645
-93337,0002994537
-83019,1291465759
-83517,8178453445
-92552,9002537727
-94350,6999001503
-81677,904920578
-70035,5814361572
-77597,6616926193
-97628,5329499245
-107404,771015644
-95937,4474086761
-76302,8702249527
-62702,4145412445
-39450,3985599279
10263,0599603653
67874,3658094406
106123,229504585
119375,038349152
125988,850007176
149996,893812656
193318,037298203
231312,478408813
236879,50075531
207751,36402607
167732,367369175
140163,705377579
126035,039666176
115908,479623795
112375,712006569
126021,799213886
153558,090735435
172349,180380821
165098,324691772
140403,775048256
121198,39139986
120521,551283836
128257,199914932
126542,830914021
116106,829114437
110339,836650848
113130,948961258
114682,126027107
105299,890929222
91176,6108182073
89397,5168652534
105834,240016937
124856,252447128
126218,984687328
108990,149582624
91059,6099414825
86194,8938703537
88615,0834465027
86224,3414697647
80990,5827102661
84687,3021960258
99883,4652767181
111500,968126297
103774,340202332
82394,281093955
67341,4512610435
68444,182103157
75081,0215978622
72306,1741490364
62595,1546243429
61317,5774478912
73782,427233696
85038,7112503052
77453,9780225754
54936,0289504528
38617,7217926979
40361,949757576
50008,2917509079
51339,6268835068
42031,2957377434
34173,1335449219
37639,3799219131
43745,1285457611
38621,9259052277
26312,8142793179
22615,0775742531
33777,8100299835
45328,2147960663
39479,4865760803
20558,4866218567
7752,22173070908
11775,2857503891
23481,073431015
26023,5821485519
19418,1752660275
17602,3885087967
24987,8820037842
29593,2591705322
18974,6820545197
-1004,73446702957
-10270,3425898552
1145,2379617691
19445,4836835861
23970,2993707657
12695,2768933773
2649,56690454483
5391,53443908691
11107,212395668
6016,32837104797
-5821,3922598362
-8395,70924663544
4371,20404338837
16372,5851430893
9155,42506980896
-11691,7982685566
-24214,2647604942
-15951,0942316055
1263,12429046631
7670,41888523102
1688,16057825089
-4213,41640138626
-2475,03566741943
-100,539558410645
-8902,06029033661
-24527,804792881
-28407,0965585709
-12862,6717147827
6849,83276462555
10401,4888792038
-3725,5145316124
-18064,769742012
-19021,1779327393
-14256,3890199661
-17734,6746940613
-26778,2837638855
-26964,3174996376
-13045,7841968536
-91,3852653503418
-5452,49597835541
-24797,4264438152
-37922,1235933304
-31319,545088768
-14496,938999176
-6549,06048297882
-9848,24994158745
-12407,0026226044
-7514,39415645599
-4416,53413200378
-14879,0729141235
-31445,0948445797
-34830,6520066261
-18168,3165817261
2457,65880298615
4559,94473457336
-11678,0556684732
-24840,656771183
-20686,9066228867
-7844,88278579712
-3549,42182922363
-9826,06555628777
-13616,9749422073
-7287,08682060242
-1413,89395046234
-11120,5528497696
-33051,9980437756
-48480,6605792046
-47742,3195180893
-43126,9900684357
-50998,0854578018
-68486,6370162964
-80113,7850904465
-78776,6576938629
-75484,1032018661
-86683,9720840454
-110899,236122847
-129099,820101738
-129511,916930199
-122560,745909691
-119483,649992943
-109244,629504681
-82133,5079212189
-50904,8377761841
-32374,5645418167
-29556,1928024292
-30105,6595416069
-17445,6982383728
10801,1180772781
33041,4830141068
24548,3102426529
-12274,5601005554
-52527,3985452652
-75219,3721323013
-81487,3443956375
-85373,5965061188
-88979,1977247
-83785,2234964371
-70941,7524309158
-66726,42877388
-83755,6333622932
-111681,741490841
-127820,903411865
-121970,710377693
-107917,041347504
-108409,9218297
-126569,248564124
-144018,533347607
-148419,756738663
-148323,389557838
-155894,57682848
-168052,740642905
-170838,023635387
-158478,416245461
-147423,902143478
-158476,98961401
-187730,18971765
-212124,62308073
-216224,97649765
-208326,196413994
-203844,226502419
-188015,807403922
-132692,259143829
-54691,1346101761
-1960,12156581879
10131,9655199051
9597,8633762598
29392,3961181641
76017,3039541245
124103,61050415
139113,424220085
112431,796264768
65777,6022372246
24797,723739624
-3865,94276809692
-26974,3108267784
-41034,3464258909
-33613,2305698395
-8066,37957191467
10961,1731939316
3105,4669418335
-25521,2473824024
-50579,6160306931
-56138,3051595688
-51817,3193864822
-55533,8767886162
-68914,3252940178
-81518,8904190063
-86117,348028183
-89543,1774330139
-103836,760330677
-123376,804116607
-129460,84461832
-116073,920761108
-99580,3679466248
-101235,881394386
-123513,491515875
-149027,936640263
-161219,373560905
-162455,74312973
-165888,387879372
-173582,101089239
-174622,046031475
-163222,874564171
-152550,621342659
-160989,086083412
-186540,128428459
-209026,006744862
-214672,722460747
-212404,899137497
-218556,172636986
-231800,94746089
-237773,180346966
-229424,597445488
-219236,523760796
-226314,045811653
-249036,127456427
-266388,60716629
-266115,564368248
-255850,040696144
-232202,528634071
-179578,699183941
-112274,451999187
-57414,819729805
-22519,812371254
-1340,09131622314
20827,6927168369
56419,681833744
98879,2437353134
120333,211390495
97043,856171608
37777,843416214
-22310,7089586258
-54039,2867507935
-58396,6531505585
-52907,4026918411
-45297,5440351963
-33479,8251976967
-18658,1411352158
-14132,1779928207
-33077,6936883926
-66902,2018096447
-92206,335586071
-95724,653260231
-87950,4440670013
-90615,9765706062
-108362,53339088
-124056,541619301
-124983,238059044
-120264,25152874
-124081,748704433
-134794,384987473
-139632,438322544
-132293,090298653
-126153,626717567
-140387,684409618
-171776,327596784
-197286,146932602
-200651,702694893
-189911,674357414
-179390,597234726
-148225,151747465
-69118,9626870155
27695,4168014526
90623,0856542587
109666,256947994
114678,449372172
140842,318043232
193540,503849983
243827,335924149
258178,925304413
228810,09573555
176608,669826984
127652,520198822
89913,4289512634
60085,0526356697
42445,2590197325
47300,6427984238
74153,4389667511
99927,1909685135
99035,8536105156
73079,0426312685
44614,7032399178
31810,9862957001
30360,4215259552
22704,0460009575
6830,71039366722
-3927,20763063431
-4580,29608440399
-7065,18698978424
-23669,3453769684
-46641,1518460512
-55114,3651194572
-40875,2742910385
-20530,200881958
-18193,5039029121
-38859,7500725985
-66042,19105196
-83092,6725673676
-90693,7032308578
-98672,3229761124
-106866,410848856
-105147,401783943
-89859,8616485596
-75821,8645572662
-82453,5795555115
-108240,052069902
-133350,471033573
-143361,636203766
-144629,465559006
-151579,632744789
-163361,100241661
-167018,365663528
-157314,881679535
-147443,623959541
-155436,253739357
-180358,686156511
-202553,015465736
-207836,862926483
-203301,40228653
-184754,721791267
-125582,304176569
-35169,5038762093
43906,838675499
91833,6133098602
118719,461540222
146571,819744349
189683,813008785
240429,481778145
269015,275196075
247686,515357971
182635,240731955
109011,047622204
58933,7391004562
37887,9560432434
32485,0887470245
36457,2405025959
52390,2742404938
74740,111284256
84913,2291030884
66855,3980488777
27723,7848085165
-6395,7891125679
-18557,5324068069
-17736,0111322403
-24067,1428089142
-43084,3627456427
-61142,7951760292
-65561,5297927856
-63735,395234108
-71170,4826993942
-86702,0480843782
-95324,5932354927
-89613,4078102112
-83691,2259407043
-98604,28814888
-132660,585948467
-163015,286086559
-171921,716440201
-164923,654153824
-158809,76133585
-137823,747525692
-66669,5978403091
35247,4230251312
107899,167877197
129278,497414589
129085,78151989
147439,595528603
194881,707694054
245039,560627937
262764,233269691
236833,214888573
186632,735862255
138556,973725319
99392,9254074097
63874,288869381
38391,5900598764
36415,8407468796
57484,7370090485
79090,4953718185
76375,638358593
49634,5857948065
20327,3122062683
6647,87938308716
4554,10395145416
-4091,04696130753
-22340,120978713
-37141,8244013786
-42303,5122470856
-46965,9184560776
-62743,1745200157
-84975,9962264299
-95440,7088141441
-85528,8887958527
-69945,4369544983
-71126,7212562561
-93091,1039721966
-118977,894776344
-132313,38726902
-136047,080272675
-143541,744686127
-155510,344969511
-159198,440020084
-147987,400536537
-135862,777342796
-142939,473329544
-168526,477164745
-193055,362813473
-203195,118177414
-205911,267474175
-214574,928808212
-228331,834886551
-234147,030562878
-224817,640331268
-212610,988233566
-217197,585001945
-238794,334300041
-258481,249257088
-262832,640735626
-259362,764950752
-246372,507353783
-183862,226209641
-61677,0976400375
61390,4952144623
139349,233095169
181925,23719883
222832,040979147
285444,29013586
360352,724286079
408365,068254471
396046,360136986
328064,761644602
240626,862045288
171230,722622871
132186,206096649
114976,666231155
115127,822685122
133825,600769043
162672,55881691
180007,451458931
167100,165553093
129925,623712301
94300,4063920975
78421,1599960327
75133,667842865
63994,3817424774
40254,7247101068
20565,6864695549
17301,2876701355
20279,7356672287
13587,1006646156
-1509,1451921463
-10546,3004488945
-5173,52394771576
1019,14405059814
-14280,2076416016
-50263,1312963963
-83907,8326086998
-97273,929485321
-95432,4687423706
-91776,8435368538
-65415,5896786451
14615,3460869789
119569,905804634
191673,156225204
214722,626752377
216966,42675221
234862,766050816
278462,375276566
323013,782996178
334491,497796059
303471,599258065
250575,368943214
201333,504289627
163222,993501663
131831,398245335
110507,871685028
110071,747773647
128930,915804863
144935,845088959
137620,249364853
110376,517997146
82899,3644490242
70320,461974144
67464,2786302567
56896,9724092484
36329,8176417351
19179,2111029625
11465,2706699371
3498,36133575439
-15377,9779129028
-38433,2680506706
-47328,2244710922
-34478,7033567429
-16213,6956062317
-17914,4599456787
-43701,257491827
-73694,9928965569
-89721,7844133377
-94513,4713773727
-102114,754237175
-114151,67096138
-118070,392632961
-107355,700742722
-95717,7151451111
-103303,011112213
-129987,665830851
-155544,12927866
-164852,198295593
-165799,930763245
-174650,117212296
-190667,627043247
-199788,160279751
-194124,463435173
-184861,45005703
-191233,07414341
-214081,127823114
-234627,205021858
-238626,796916962
-230996,243562698
-201221,41984272
-118960,694643497
-3235,05378770828
92371,3724994659
150784,404641151
189323,378731728
231723,867033482
290947,487466574
355029,227424622
388392,617980003
362516,009653091
287261,077376127
201208,44755125
139923,434812546
112774,456784248
106496,269532204
112237,203785658
131309,086078167
157094,903741837
168830,486655235
149302,533857822
107720,322520256
71686,2563695908
58509,2175569534
59042,092215538
50578,9202404022
28248,702100873
9313,66212129593
5822,23195838928
8614,17892074585
2870,80625152588
-11026,5914121866
-19422,6373000145
-14795,1041097641
-11387,7143878937
-29787,373210907
-67354,8483330011
-100086,364152431
-109749,091422081
-103075,967074394
-91505,2827367783
-52564,4769890308
31696,8624949455
124347,901244164
181230,963373184
197072,601980209
198663,892412186
217455,874587059
259712,240779877
300436,696395874
305648,948507786
267619,060270667
211108,480300426
163764,389239311
131976,315541267
108384,138976574
92863,2027198076
93820,0266480446
110442,96808815
123014,179198265
111097,082211018
78616,9815174341
49730,1244578362
41524,9672746658
45913,2065973282
41980,3840241432
22267,7095184326
-1300,83048534393
-14229,9693393707
-17867,1678800583
-24739,6565227509
-37125,003057003
-43515,1309971809
-35817,7136306763
-25867,3480262756
-34575,9449367523
-63334,7537275553
-92875,5455560684
-106989,305400848
-110573,558057785
-119506,0198946
-134280,941046953
-140160,21395874
-130118,458417892
-118076,340908051
-124177,232104301
-149618,984497547
-176210,782929897
-187284,559999466
-187010,244027138
-187147,417176247
-163540,730839968
-84401,3284230232
20785,1967792511
97464,4552183151
131015,279177666
145984,82722497
174679,39834404
225043,994017601
272010,666521072
280919,17961216
242061,743216276
178495,707136631
120880,781617165
82043,4371404648
58171,9307756424
47740,3572220802
56689,7444572449
82436,9519147873
103418,99856472
97546,8779821396
66633,9220535755
32124,4896087646
12537,604393959
5655,44575119019
-4585,4941778183
-21240,8384234905
-32666,490334034
-34048,5990056992
-36096,496714592
-51447,7759666443
-74377,52196455
-86084,3466320038
-77682,9801330566
-62502,8592472076
-64769,5919408798
-90087,8768692017
-118335,573181152
-131773,331280708
-135546,226639748
-143166,688558578
-155265,082488537
-159550,150589466
-147985,084413528
-134583,045681953
-142223,601920128
