0
0
0
0
0
0
0
0
0
0
0
0
0
0
0
0
0
0
0
0
0
0
0
0
0
0
0
0
0
0
0
0
0
0
0
0
0
0
0
0
0
0
0
0
0
0
0
0
0
0
0
0
0
0
0
0
0
0
0
0
0
0
0
0
0
0
0
0
0
0
0
0
0
0
0
0
0
0
0
0
0
0
0
0
0
0
0
0
0
0
0
0
0
0
0
0
0
0
0
0
0
0
0
0
0
0
0
0
0
0
0
0
0
0
0
0
0
0
0
0
0
0
0
0
0
0
0
0
0
0
0
0
0
0
0
0
0
0
0
0
0
0
0
0
0
0
0
0
0
0
0
0
0
0
0
0
0
0
0
0
0
0
0
0
0
0
0
0
0
0
0
0
0
0
0
0
0
0
0
0
0
0
0
0
0
0
0
0
0
0
0
0
0
0
0
0
0
0
0
0
0
0
0
0
0
0
0
0
0
0
0
0
0
0
0
0
0
0
0
0
0
0
0
0
0
0
0
0
0
0
0
0
0
0
0
0
0
0
0
0
0
0
0
0
0
0
0
0
0
0
0
0
0
0
0
0
0
0
0
0
0
0
0
0
0
0
0
0
0
0
0
0
0
0
0
0
0
0
0
0
0
0
0
0
0
0
0
0
0
0
0
0
0
0
0
0
0
0
0
0
0
0
0
0
0
0
0
0
0
0
0
0
0
0
0
0
0
0
0
0
0
0
0
0
0
0
0
0
0
0
0
0
0
0
0
0
0
0
0
0
0
0
0
0
0
0
0
0
0
0
0
0
0
0
0
0
0
0
0
0
0
0
0
0
0
0
0
0
0
0
0
0
0
0
0
0
0
0
0
0
0
0
0
0
0
0
0
0
0
0
0
0
0
0
0
0
0
0
0
0
0
0
0
0
0
0
0
0
0
0
0
0
0
0
0
0
0
0
0
0
0
0
0
0
0
0
0
0
0
0
0
0
0
0
0
0
0
0
0
0
0
0
0
0
0
0
0
0
0
0
0
0
0
0
0
0
0
0
0
0
0
0
0
0
0
0
0
0
0
0
0
0
0
0
0
0
0
0
0
0
0
0
0
0
0
0
0
0
0
0
0
0
0
0
0
0
0
0
0
0
0
0
0
0
0
0
0
0
0
0
0
0
0
0
0
0
0
0
0
0
0
0
0
0
0
0
0
0
0
0
0
0
0
0
0
0
0
0
0
0
0
0
0
0
0
0
0
0
0
0
0
0
0
0
0
0
0
0
0
0
0
0
0
0
0
0
0
0
0
0
0
0
0
0
0
0
0
0
0
0
0
0
0
0
0
0
0
0
0
0
0
0
0
0
0
0
0
0
0
0
0
0
0
0
0
0
0
0
0
0
0
0
0
0
0
0
0
0
0
0
0
0
0
0
0
0
0
0
0
0
0
0
0
0
0
0
0
0
0
0
0
0
0
0
0
0
0
0
0
0
0
0
0
0
0
0
0
0
0
0
0
0
0
0
0
0
0
0
0
0
0
0
0
0
0
0
0
0
0
0
0
0
0
0
0
0
0
0
0
0
0
0
0
0
0
0
0
0
0
0
0
0
0
0
0
0
0
0
0
0
0
0
0
0
0
0
0
0
0
0
0
0
0
0
0
0
0
0
0
0
0
0
0
0
0
0
0
0
0
0
0
0
0
0
0
0
0
0
0
0
0
0
0
0
0
0
0
0
0
0
0
0
0
0
0
0
0
0
0
0
0
0
0
0
0
0
0
0
0
0
0
0
0
0
0
0
0
0
0
0
0
0
0
0
0
0
0
0
0
0
0
0
0
0
0
0
0
0
0
0
0
0
0
0
0
0
0
0
0
0
0
0
0
0
0
0
0
0
0
0
0
0
0
0
0
0
0
0
0
0
0
0
0
0
0
0
0
0
0
0
0
0
0
0
0
0
0
0
0
0
0
0
0
0
0
0
0
0
0
0
0
0
0
0
0
0
0
0
0
0
0
0
0
0
0
0
0
0
0
0
0
0
0
0
0
0
0
0
0
0
0
0
0
0
0
0
0
0
0
0
0
0
0
0
0
0
0
0
0
0
0
0
0
0
0
0
0
0
0
0
0
0
0
0
0
0
0
0
0
0
0
0
0
0
0
0
0
0
0
0
0
0
0
0
0
0
0
0
0
0
0
0
0
0
0
0
0
0
0
0
0
0
0
0
0
0
0
0
0
0
0
0
0
0
0
0
0
0
0
0
0
0
0
0
0
0
0
0
0
0
0
0
0
0
0
0
0
0
0
0
0
0
0
0
0
0
0
0
0
0
0
0
0
0
0
0
0
0
0
0
0
0
0
0
0
0
0
0
0
0
0
0
0
0
0
0
0
0
0
0
0
0
0
0
0
0
0
0
0
0
0
0
0
0
0
0
0
0
0
0
0
0
0
0
0
0
0
0
0
0
0
0
0
0
0
0
0
0
0
0
0
0
0
0
0
0
0
0
0
0
0
0
0
0
0
0
0
0
0
0
0
0
0
0
0
0
0
0
0
0
0
0
0
0
0
0
0
0
0
0
0
0
0
0
0
0
0
0
0
0
0
0
0
0
0
0
0
0
0
0
0
0
0
0
0
0
0
0
0
0
0
0
0
0
0
0
0
0
0
0
0
0
0
0
0
0
0
0
0
0
0
0
0
0
0
0
0
0
0
0
0
0
0
0
0
0
0
0
0
0
0
0
0
0
0
0
0
0
0
0
0
0
0
0
0
0
0
0
0
0
0
0
0
0
0
0
0
0
0
0
0
0
0
0
0
0
0
0
0
0
0
0
0
0
0
0
0
0
0
0
0
0
0
0
0
0
0
0
0
0
0
0
0
0
0
0
0
0
0
0
0
0
0
0
0
0
0
0
0
0
0
0
0
0
0
0
0
0
0
0
0
0
0
0
0
0
0
0
0
0
0
0
0
0
0
0
0
0
0
0
0
0
0
0
0
0
0
0
0
0
0
0
0
0
0
0
0
0
0
0
0
0
0
0
0
0
0
0
0
0
0
0
0
0
0
0
0
0
0
0
0
0
0
0
0
0
0
0
0
0
0
0
0
0
0
0
0
0
0
0
0
0
0
0
0
0
0
0
0
0
0
0
0
0
0
0
0
0
0
0
0
0
0
0
0
0
0
0
0
0
0
0
0
0
0
0
0
0
0
0
0
0
0
0
0
0
0
0
0
0
0
0
0
0
0
0
0
0
0
0
0
0
0
0
0
0
0
0
0
0
0
0
0
0
0
0
0
0
0
0
0
0
0
0
0
0
0
0
0
0
0
0
0
0
0
0
0
0
0
0
0
0
0
0
0
0
0
0
0
0
0
0
0
0
0
0
0
0
0
0
0
0
0
0
0
0
0
0
0
0
72236357,9642029
76371169,0287361
85239548,134552
92257534,9602661
93415844,9733276
88936847,8406372
83104374,5906067
81901275,5419807
84201581,9666748
84151185,7336426
83152967,2042847
84558816,0534668
87355267,2890358
89733455,6691284
90996181,5504761
91685308,7591553
92700487,0136108
94365647,8534546
96093028,8179321
96777184,0695801
95597250,2281494
96411809,0448608
105360707,977661
115601338,523834
115355759,667786
109824414,401001
110637304,278625
118442754,312378
125980513,240746
126338955,565186
120232237,356018
119797158,995483
133405444,22998
148597281,533348
147270401,314667
134643768,523987
132607038,577515
145944163,13916
159428259,377197
158223613,727119
143570017,517029
133396591,180481
138231806,216919
147728023,589172
145909536,633347
136178179,44203
139230782,885635
159038023,754028
176879964,424011
175688824,936279
163963351,631165
166962024,991638
188904476,321678
213371439,289551
226899083,959961
225560186,952393
218657917,566956
221228646,917343
233906913,331055
251469276,608276
274663962,81543
297416732,742188
311832429,461884
321038030,564026
333283017,632446
350987336,321045
369630507,34436
385364051,549805
398690031,717407
410639011,284424
416671887,287109
408901608,30127
389560420,904175
374489704,867432
377907644,790039
398965379,007568
425101874,307373
444944309,30896
454858563,495605
456148075,969238
448716404,905762
430292501,15918
405115473,656128
386303100,907715
384211978,507324
396132802,391113
411080636,967285
420949784,9552
422172600,741699
415666173,973633
405263498,947266
391499690,943359
375739971,208252
364788573,927979
363572821,587402
369853574,906738
381464716,32666
396938616,421143
404592707,170898
395619784,258789
379968244,187988
368503269,531738
360498990,533691
353456272,997314
346069002,861328
336273788,397461
328204678,679688
328011653,696533
329305515,915527
323542084,834961
317514757,617188
319929424,905273
325993242,670166
328252645,320923
323496917,927246
311801309,46875
300067409,188477
293680302,70459
288705186,834106
280990111,195313
276928538,296875
283864923,643066
294896313,737549
299018405,839844
292371818,110352
279270519,974121
271301697,818848
273768303,02124
280614675,451416
285430238,631348
287888645,828125
290480466,127441
292873559,487549
293377940,76123
291532676,847168
285560371,754395
271862944,456055
249235890,317139
224003106,877075
206705788,810059
204615313,40332
217438168,003906
233688668,41333
238969703,458557
227320016,751709
203242654,166016
178815497,61084
164398817,806396
162840565,381169
171253664,779541
183049500,172852
191488866,79834
194314258,39502
192336336,233643
183547164,973022
164242503,31543
136917509,961182
110329582,741455
91226295,8726501
80890988,6955566
78659915,1618652
83524764,8503418
91932182,4333496
99312526,1102905
102378505,406006
98791985,8087158
87525215,5458984
68984269,8127441
45339028,239624
20736998,7432861
3902489,29089355
1971833,20861816
5296687,06628418
-2872174,6338501
-26914864,215332
-64934652,6871338
-109387820,526733
-138245471,715515
-126370665,006851
-70076361,8504028
-10167085,0018921
2334418,77667236
-26573897,8983765
-47194835,5988007
-31830505,118042
11418766,5196533
71377245,12146
134115994,441338
164746147,367188
131361963,990356
44970084,5526123
-40284520,640564
-76078714,9458618
-59807651,6925049
-18213414,5887451
25686863,1242676
61610171,5177612
87873647,4664001
108093630,045288
122687088,280762
121491335,410034
100857652,289307
79454087,315918
80031241,1599121
107162686,073242
142007865,576416
151934621,480835
115802723,871704
50386169,7606201
1699758,09301758
-4442872,41760254
15947644,7562866
34650581,8060303
38628245,9080811
31988363,609375
22649189,1512451
12837542,9944611
323788,883666992
-15254582,5330811
-22469402,4006348
-5722145,91088867
26982056,161602
44807277,8917847
31649560,8262939
1933223,05810547
-24145422,0324707
-40541926,0487823
-41973858,5067749
-14771005,6643677
40012441,1816711
92851847,3037186
112703533,100952
95911247,150116
60362901,7706604
27316820,3043213
7954210,00366211
-5261530,24597168
-23174682,0905151
-36029172,1866455
-27032572,9483643
-3835034,41931152
9010449,06054688
2164335,34727007
-14123028,2684326
-28230823,1325684
-43951283,9345703
-75310295,1208496
-119148697,030548
-152635790,374512
-158763497,688232
-143018553,838623
-126675319,872803
-122070007,976837
-121551065,708008
-111145884,373291
-89695101,6037598
-71667290,5917969
-65305062,0378418
-62490992,6705322
-57554207,4741211
-60957794,9169922
-82009011,9211426
-108771154,620117
-121087062,90918
-109837471,60083
-83277741,9082031
-63930543,2504883
-65922676,309021
-79871330,8970947
-90496573,911377
-98629878,798584
-112414430,26709
-126696552,245483
-130125657,914185
-118478055,216553
-98249128,4501953
-86918000,5102539
-94671915,3615723
-110078440,082886
-116612999,359619
-115681074,222168
-119443119,448486
-127767235,136108
-131412785,200317
-125369606,713623
-115719424,283936
-119062607,74707
-140945117,965088
-165155862,461426
-173278099,905273
-165435561,738281
-157284970,589844
-157950749,805176
-164005231,001404
-173168375,976807
-191168744,208984
-231694199,029541
-310711837,303345
-412009651,761353
-475889784,230957
-468043541,575684
-421221029,141357
-386880563,312012
-386773887,606098
-414186417,949463
-453668693,271484
-486478428,712891
-491427168,869873
-466224024,388818
-434019115,492798
-417070966,592285
-424962022,044678
-453247708,105835
-482222837,378479
-489909578,401764
-466230642,844116
-412219601,640625
-339631169,12262
-281242750,502441
-269378632,502075
-301821955,892479
-355555498,898346
-432344877,756592
-552749381,198853
-675182570,874634
-717795322,760376
-676946606,823364
-621536096,308838
-611860834,248779
-663743626,906982
-751087708,345459
-829478738,037598
-862700790,861172
-839268296,094116
-773975492,846191
-696996772,723145
-637839506,371094
-612282997,20575
-617710642,494019
-637639231,593994
-651985174,531738
-647476740,531494
-623287948,266632
-589800203,562744
-561871050,651855
-550456320,125488
-556861096,895508
-572276648,085938
-582519567,662964
-575387171,890137
-546924761,352539
-503591746,550049
-459381391,181152
-429357700,387695
-422695739,180664
-438445899,772461
-465901020,088135
-489306370,701843
-494716621,581421
-475926708,146484
-436923491,197998
-389923410,531738
-350011337,184265
-328808469,206665
-329888359,363037
-347768789,385498
-370688485,041504
-385772068,343506
-384279920,604553
-364770048,444458
-333035947,247803
-299118708,832764
-272883160,989075
-260111124,473999
-260665488,724731
-269262602,768921
-278245951,20874
-280981006,763977
-274383749,889954
-259633294,895447
-241004836,659302
-223573082,901489
-210931508,076935
-203920440,874001
-200783021,110352
-198473186,647888
-194349337,694946
-187402762,805969
-178489344,152374
-169569703,906937
-162446154,489857
-157691178,906387
-154315058,846588
-150314691,796722
-143792370,387482
-134053243,104279
-122110534,067226
-110327344,868134
-101350715,635864
-96840841,2316895
-96603045,1692505
-98547156,8885193
-99517714,7529945
-96637561,813385
-88570565,5991211
-76141603,8630066
-62035276,3186646
-49698964,2641258
-41920317,9179077
-39684403,7086792
-41787707,9163208
-45357092,1069031
-47038568,9658642
-44348389,9517822
-36628711,3055115
-25234318,7412415
-12908114,5567017
-2636132,08063889
3530783,88386536
5215636,89904785
3747762,69158936
1524413,61175537
1003570,13472748
3755103,98931885
9939935,42953491
18384594,9654236
27166054,6679382
34426231,6419525
39071834,2787857
41096881,341568
41444664,3666534
41519710,7906342
42587389,3481216
45314188,0462189
49611714,4719391
54801824,1557312
59986486,4148407
64438781,032692
67850762,5058174
70360325,9113615
74347550,4569397
83691211,1033745
98445436,2533417
114707239,779636
128137479,560538
133852123,503677
129779607,371391
122605947,195129
123960335,848633
140631922,921936
167592700,889786
192322285,983604
208796425,119842
221632446,409164
237707549,731369
257262859,569611
279662077,813026
311753701,25946
345486536,18158
359768645,996399
357112311,224915
353030780,979858
353121631,554443
358275025,4767
367764788,477905
382358669,405273
418651288,484161
490332795,907295
560098605,690399
572444290,672424
535612712,169556
505130752,521362
506676728,617981
522899537,303528
528337321,910065
525504204,434937
548918137,315002
610811471,623322
669594973,748032
675361010,822571
636035416,937317
612245245,520447
633799905,666565
666356905,319153
661624091,344116
616357192,879517
577417506,266136
576161534,11969
586935856,062073
571018257,263733
543625621,641052
557291912,982727
616865422,917847
667420419,115967
658756567,464355
600707651,046875
551219241,250977
541108867,565781
548187267,908325
540009543,370117
521163932,307617
532993043,718994
586002102,105042
633037752,230957
632302297,220703
595689666,960938
557327148,78833
532123018,794556
521231589,789307
521970282,816406
528450928,415527
542938169,984375
569386441,317017
587462695,611572
573127351,683105
534778102,54834
496718175,210449
471695334,77832
458522043,725342
449115783,347168
438191331,691406
433803241,730469
444312327,468018
454047290,445557
443416439,079102
420393584,713867
405437157,876465
404637599,747559
407720499,82666
400648405,391602
380027160,585938
359326358,173828
351883569,549316
349857970,834473
339935269,026367
328866309,316406
331490389,260742
346923018,450684
358725402,004395
350807847,349609
322212998,061523
289664100,695313
270015708,78125
261162418,686768
253305998,492676
250116790,113281
260176182,438477
278861038,57959
290004748,419189
279831637,905762
249859510,990234
218008003,746094
200646080,666748
194356844,145508
187656253,16748
182712762,683594
188197218,136719
201614872,926025
209781882,068726
201152152,633789
177385221,429688
154135507,776367
144522782,70459
142660670,129395
135910267,834473
126649519,905273
125310352,585449
132445518,584717
138107062,500244
132483164,007324
116476061,87207
102531020,10498
99934717,8618164
101629328,112061
95843421,7387695
84837775,2724609
79045454,9951172
81057613,5285645
83772088,5085449
79322665,6401367
68542332,4345703
61131389,4199219
62861056,1748047
65351868,2922363
57249529,6567383
41231940,7739258
28590531,2607422
23882598,6035156
22156326,3881836
16273320,6816406
6316795,88330078
1748824,828125
8259722,4855957
14052503,0476074
3583189,40429688
-18776646,2939453
-36272131,128418
-42037188,8266602
-42791013,1401367
-48119852,3232422
-58378939,4550781
-61764671,0532227
-50949681,263916
-39709686,0444336
-45334974,4794922
-62375352,1572266
-73035461,3896484
-71650263,9960938
-67245869,1016846
-70819017,8540039
-82602788,9960938
-89578355,1977539
-82698485,0222168
-74099945,4187012
-80147517,7641602
-95302837,7050781
-102368977,922363
-96843600,3327637
-88995349,8414307
-90856664,0952148
-103129672,61084
-112106534,887695
-107280996,431641
-99473662,8361816
-104521306,333008
-117135383,087402
-120690454,695313
-111615611,229248
-101379749,229126
-102545959,418457
-115385344,978516
-125530085,172363
-121664374,547119
-113675492,515015
-117043656,669434
-127186483,59668
-128959656,413086
-119609904,520996
-109952827,359009
-111535705,272949
-124257873,171875
-133854464,175293
-129172436,401855
-120412643,809937
-123763712,324707
-135318513,649414
-139809273,41748
-133422043,669189
-125752153,703125
-127665302,273926
-138998807,809082
-146079550,547363
-138698548,307617
-127761729,260864
-129676119,628418
-140461621,374023
-144579392,649902
-137740322,615479
-129183630,581055
-129627912,391113
-139172870,795898
-145225432,755371
-138197415,243896
-127760520,982178
-128875151,526855
-137980680,820313
-141019093,308105
-134166747,645996
-125713243,260864
-125357814,959473
-133478987,435547
-139206167,123535
-133551174,898438
-124170534,195923
-124709775,335449
-132958714,783203
-136539695,830078
-131537623,219238
-124980340,661743
-125364397,766113
-133325904,709961
-140266977,803223
-137732940,070801
-130765066,12207
-131232560,391113
-138137042,227051
-141472006,488281
-137483574,441406
-131172782,869263
-129659425,541504
-134963404,841797
-141293674,146484
-140129035,171143
-134212418,021362
-133778327,328125
-138171740,868164
-139990407,811523
-136587104,623535
-131071660,557129
-128501587,010254
-130597354,832031
-133541200,628906
-130646347,822754
-123442211,716187
-120639235,964844
-123508031,825195
-127180054,184082
-128176653,137207
-126566842,626587
-125213521,229004
-126658629,516602
-129323115,836426
-126906990,562256
-121573619,390991
-122482125,777344
-128692221,606445
-134463234,1875
-137621053,500732
-138170771,186035
-138830852,885742
-145795036,850586
-155061867,311523
-150877894,353271
-139390819,579834
-139654897,799316
-147933545,994141
-152582832,999512
-151792053,618652
-147266011,363892
-143310339,916992
-148397935,494141
-157476359,761719
-152818674,254639
-143187026,310913
-150614212,124023
-166258820,316406
-170936057,731445
-165211270,619629
-157103685,002441
-154130425,376465
-163271849,480469
-171663763,036133
-158523747,859863
-138963736,844116
-141397936,119629
-157553692,425781
-164343420,966797
-159327062,776855
-150647541,137817
-148105961,758789
-159052644,383789
-167304172,268555
-151719363,408203
-130477086,414307
-133608684,025879
-151446027,443359
-157692045,875977
-149206027,122559
-136419394,799561
-130751912,961914
-139964327,036133
-148628672,78125
-135541969,336914
-116873192,08252
-120665952,151855
-136687630,723633
-139179496,864258
-126756800,233887
-112127457,307373
-106933361,25293
-117479870,029297
-127937057,154297
-116304661,78418
-95957969,871582
-92314152,737793
-99017726,7753906
-97667740,5839844
-85966296,9956055
-72060061,4455566
-64052835,7182617
-66164343,6669922
-70518074,71875
-62627950,4560547
-48329684,465332
-45229174,7392578
-51587192,2529297
-54215994,2792969
-48560724,8852539
-40220113,793335
-37339207,1289063
-41302200,3662109
-43308054,8173828
-34736725,3071289
-22887248,2469482
-22098259,6074219
-29804878,3251953
-32052919,4033203
-24707127,5849609
-16369802,5531006
-17602730,4873047
-29003349,8544922
-38366209,0849609
-35266771,1279297
-27487039,0230713
-28663722,6230469
-35171565,4423828
-33870884,8125
-22692829,6357422
-12154614,8302002
-13623859,4873047
-27154855,0703125
-38964501,1269531
-37156323,8227539
-29206874,2246094
-29134975,3730469
-33696376,9746094
-30324779,1943359
-17521730,8789063
-5915438,20910645
-6563408,26269531
-18982783,9521484
-29406718,6083984
-26709550,996582
-18205009,6347656
-17265046,7470703
-21863575,8525391
-20897365,6367188
-11764871,7509766
-2389593,53759766
-1938662,69384766
-10119623,7636719
-15823061,8183594
-11138545,9379883
-3517716,57885742
-4510033,62792969
-11839797,2236328
-14534171,2685547
-8658061,94580078
-457525,440917969
1408423,52539063
-3897249,20019531
-7129550,54394531
-1431033,33422852
5927504,50134277
3663837,03125
-6258195,02441406
-12780599,8012695
-10791437,7792969
-5169326,57324219
-4062300,68896484
-8475452,57324219
-9710987,3515625
-1838465,03100586
7282113,73193359
6301953,15673828
-3006346,5546875
-9626473,32226563
-8142728,5
-3138712,77819824
-2470854,79003906
-7084004,00488281
-8615490,90820313
-1344882,38842773
7253108,60974121
6454322,13525391
-1881636,984375
-7345984,08984375
-5243439,83349609
-376310,81640625
-157829,039550781
-4941434,47265625
-6614948,72216797
-232199,486816406
6949604,39831543
5143032,47998047
-3406486,29980469
-8481290,18994141
-5765297,06079102
-640546,111328125
-1180213,69042969
-7890157,203125
-11741519,3745117
-6407721,44580078
683501,264526367
-1553124,61083984
-10713969,7177734
-15740655,434082
-12652771,6677246
-7611749,43408203
-8937770,25048828
-16866935,921875
-21436958,2324219
-15390960,6516113
-6647872,30664063
-7247541,31494141
-14666560,4365234
-17451083,9614258
-11797916,6723633
-4449320,98950195
-4367560,74023438
-12117651,2119141
-17640392,3999023
-13150878,9265137
-5855731,26220703
-7652300,83837891
-16547155,9492188
-21498889,6152344
-18539846,8054199
-13983483,0435791
-16473628,8891602
-26265035,3505859
-32314688,1577148
-26072219,6083984
-17103660,4416504
-20709107,7739258
-33767520,4648438
-41379630,7265625
-38757507,871582
-34390781,3970947
-39030810,9287109
-52688253,7119141
-60003042,2158203
-49734396,8984375
-37100814,6627197
-43860848,9267578
-63173800,7128906
-71507063,4199219
-63429601,1679688
-54139147,0717773
-62692112,2597656
-91700855,2509766
-116113987,959961
-116002844,147461
-108466147,044678
-120627112,377441
-145191531,610352
-148807759,604492
-124812533,793457
-109343096,56189
-137038128,055664
-187148865,75
-205691939,712891
-183487576,47876
-161721209,093933
-178615511,043945
-230442474,618652
-270504671,126465
-266766626,039063
-249364000,960449
-261278875,720703
-286418702,032715
-281220637,784668
-246843446,783447
-220389951,153809
-228879552,649902
-262588516,188965
-271957757,856934
-218368512,135254
-131550266,228516
-82759881,1523438
-98133152,2958984
-128878586,873047
-124744573,195313
-95565888,6760254
-76811320,3056641
-68174136,3725586
-41119605,3818359
2174737,34521484
20335985,0230713
-17752088,9355469
-82900726,3422852
-108904870,800293
-80165563,2370605
-46536737,546875
-61205817,7402344
-135044120,272461
-226392812,488281
-286659678,663818
-322382888,831665
-353187377,414551
-355661460,407227
-316056943,084961
-262009236,913818
-226437102,766602
-225324979,047852
-247587829,102051
-243377238,399902
-165450198,143311
-43167616,0777588
36491564,9003906
28107494,4384766
-25254532,7587891
-55315375,9685059
-49072173,1837158
-38470777,7895508
-36200298,4560547
-17433296,8691406
25290745,5541992
49228813,2512207
12097993,6938477
-59081668,3720703
-89510410,4658203
-53403234,1936035
3272071,40112305
24015056,699707
1067168,125
-17465929,5205078
5909189,50244141
47278266,5483398
57774450,9135742
33239216,5859375
23934834,3754883
60980449,0612793
111749292,710266
131045415,222168
124575149,164063
127483767,410645
145290761,67749
160711798,50769
157018521,42627
132985604,31543
122035552,919922
148080519,768311
178631176,053101
169161899,973145
128957411,980469
101966934,62207
103483441,251709
121059934,284546
140718820,787109
151066547,439453
160303098,534668
185917576,423096
211642128,350708
209319636,812988
186065878,008789
164705135,538086
154088119,17334
152825237,286255
152334334,947754
144189494,470703
141876104,824219
162269705,140625
186566571,995605
187748138,046387
170514474,523438
155396483,987305
154643231,661621
167251451,139282
183746671,558105
196674956,370117
205810816,849609
213065111,131348
213921175,567749
201857764,253418
183490771,225586
173876737,165039
178309712,491211
188161619,305542
190577222,736328
181463401,889648
169298533,94043
163615123,32666
159607211,758667
146212982,80127
128770232,838867
120614515,892578
120971552,035156
117795086,255493
97310950,5092773
57493851,2978516
24171352,9052734
22467210,4472656
38132513,9783936
38899934,059082
22538822,9228516
21154852,1787109
45647873,1542969
54896978,9034424
12048138,6210938
-52754304,7041016
-81549249,2958984
-68459495,6333008
-53241487,5146484
-64888457,7763672
-82759719,9873047
-58461494,4438477
12197910,9350586
86797152,7791748
132870821,134277
143820539,24707
131542233,95166
120609059,894531
123520189,444702
133151783,806152
141666802,155273
145288839,153809
143734892,470459
140419161,549561
139672331,626953
146955861,657227
166536922,628418
193948259,816895
215641225,984375
220723226,734375
209997448,841797
192871289,332031
177109561,411865
163519839,108521
149480763,294434
136120771,12207
129046066,418457
129443580,238037
129299201,268311
119557627,144531
101688209,696289
85743055,5673828
77482523,3249512
72720660,630249
64215872,3916016
51142529,0996094
42800898,0268555
48970539,8532715
60592000,8120117
58718489,1298828
43896436,5751953
31986455,7700195
30808802,3129883
34964796,7084961
34818276,5053711
28087462,4316406
25275893,6240234
36101283,112793
49653325,8393555
47575643,8305664
33103434,5810547
24219518,0561523
27910233,2797852
35255276,1466064
33624086,9018555
20843201,4970703
10750654,3911133
16069718,0405273
26162633,9901123
22306690,6445313
8388872,84570313
2807792,26660156
11238613,8588867
22548564,7844238
22461072,1738281
7743606,49707031
-6965964,96435547
-5787356,09033203
3050380,50842285
1525063,43066406
-7275480,72558594
-7450643,19482422
5018876,78271484
19302662,4104004
22116214,6591797
11125103,9545898
264489,892089844
3672869,30224609
13548663,6098633
13718262,8891602
7715702,14453125
10809507,3945313
26844938,7998047
45620194,9846191
54834042,0170898
52319131,2983398
47417012,3422852
48024215,2607422
51585930,4542236
51968907,5
49440247,6601563
49802516,7646484
55226333,7641602
60570688,5692139
59027994,2983398
51056126,3193359
45494323,0810547
47640137,2893066
51428386,2855225
47882529,987793
37019579,8227539
26816659,5087891
22274412,6665039
20430894,8991699
15664760,3227539
8440064,64013672
6930804,95703125
15682495,2871094
25617980,4743652
24391074,1103516
13508277,0966797
4562107,63671875
3661607,59643555
6544825,80895996
5463739,16992188
-230213,8984375
-1984290,77880859
5749554,21923828
14943375,5805664
13869049,8442383
3951952,59667969
-3599507,06201172
-3035390,47363281
1164915,41088867
1196119,39746094
-3641806,32324219
-5268897,59082031
1262657,84375
9950467,25317383
12205053,5898438
8021368,14257813
4692169,23779297
6396330,26269531
9088486,54675293
6114812,19482422
-1983905,81542969
-6640610,99169922
-2843335,79638672
5154778,05175781
10810305,859375
11895681,9316406
10459463,0605469
8702523,21630859
5533970,57397461
-3038026,01757813
-17089041,890625
-27397079,21875
-26886691,9819336
-26192532,6452637
-40192531,4379883
-62627769,9990234
-73814181,9238281
-64827171,2436523
-42077538,7484131
-18181340,5629883
-817335,444335938
12967340,1049805
27929287,0483398
43265641,0454102
57513696,0673828
72090526,6933594
88392722,2875977
103870194,656738
112034171,269775
106323650,37793
87473034,8828125
66037799,3701172
51160836,6689453
42087585,8082275
34096296,6464844
27110636,7041016
25968148,1953125
32765103,5424805
42785771,3747559
49510747,03125
53204100,5703125
61519127,0981445
77625999,7836914
94443693,3040771
103432842,502441
103572084,427734
100995779,79541
100906300,081055
101932294,705078
99524115,7817383
94017765,2900391
92387611,1230469
98408937,1948242
106532817,468506
109593255,858398
108177713,172852
109459451,186523
117601495,198242
128889120,483032
136693720,60791
140414148,217773
146559664,821777
157432834,187988
166151337,155273
165909772,431152
158533621,719727
152281251,641113
148796503,517578
144541778,022461
139339249,089355
131766583,460938
124058827,346191
120541991,569336
118075363,056396
111736615,120117
102920980,288086
97800454,925293
97296898,0844727
96810174,9625244
93048244,8256836
85449999,9355469
79380404,9970703
79880729,7333984
82983085,4694824
81890374,4160156
76379704,4003906
72671532,6064453
72504112,2163086
71745150,4325562
67110849,8105469
57560090,4707031
48137725,265625
43983693,4135742
41659755,1767578
35650619,0810547
26917903,7880859
21914650,2509766
23619218,5385742
27290181,6497803
25887986,8735352
18667736,8408203
13140147,0981445
14489855,4584961
18203000,2941284
17147605,9296875
11156595,5019531
6665033,09375
7354646,59130859
9381936,72692871
6290010,76220703
-2392721,81542969
-9139855,71240234
-9148303,65478516
-7087829,66619873
-9519242,20068359
-15906745,3183594
-19401318,6337891
-16678118,4536133
-11964201,9127197
-11217861,2631836
-15205025,4443359
-17387096,4887695
-13424511,3310547
-8471695,22070313
-9618021,27636719
-16300427,4365234
-21238764,5898438
-20905294,4746094
-19163550,5809937
-21448321,9365234
-28589877,765625
-34001042,5639648
-32837009,9648438
-29736885,1278076
-31567084,5800781
-38152388,3388672
-42848919,3867188
-41889700,6650391
-39572150,909729
-43096508,8652344
-53099192,0859375
-61947935,0703125
-65171762,8637695
-68006456,855835
-77302141,7871094
-92515164,7080078
-106802689,031738
-116354568,647949
-124829280,438232
-137910526,914063
-155143115,311523
-169054109,652344
-175769598,633301
-180635387,644592
-189847940,800781
-201843025,25
-209275920,580566
-208683832,021973
-204809635,953552
-205065813,108398
-210556612,268555
-214406989,045898
-212667729,842773
-210470305,678528
-213954455,684082
-221857067,761719
-227055947,472168
-225874700,058105
-222671442,738342
-224102802,122559
-230125901,726563
-232920888,663574
-228043387,822754
-220912939,909546
-218763858,174316
-221340781,058594
-221976909,076172
-216918572,212402
-210195852,335327
-208651750,520508
-212813232,912109
-215091791,792969
-210782848,25
-205150914,369141
-205638862,541504
-211725598,897461
-216080158,573242
-214545067,558105
-210959955,445557
-211972351,04541
-217792837,65625
-219710555,764648
-211256832,970703
-199859345,458313
-197868828,394531
-204288921,942383
-207917830,039551
-203523369,752441
-196495346,17157
-195516961,472656
-201957694,541992
-205587432,683105
-196793082,155762
-184043180,79364
-183952932,068359
-195091733,608398
-201665850,969238
-196878649,51416
-188644534,396973
-188714300,209473
-198545086,822266
-203556675,39502
-191486585,671387
-173971595,733765
-169956015,906738
-176028549,302246
-174279761,390137
-158962295,572754
-141213720,447266
-135207817,645508
-143470052,822266
-151948209,368652
-146913208,789551
-136237820,874512
-136203444,925293
-143444056,650391
-141350056,813477
-125242148,779785
-106600802,925842
-99330634,4946289
-105822693,87793
-113150504,498047
-108454242,239746
-97983920,3822021
-95937526,559082
-100008830,397461
-97014948,4750977
-83488712,9550781
-68565382,4317017
-63111739,0112305
-68344258,6865234
-73220164,9902344
-67651295,246582
-57475770,5977173
-55034201,800293
-59140291,3129883
-58831943,7788086
-49927606,605957
-38862100,2735596
-34543959,8989258
-37855665,7807617
-39588493,6396484
-32325507,9941406
-22050242,901062
-19858868,3623047
-25361770,0761719
-28735666,7587891
-24912288,2563477
-18273537,350647
-16130091,8173828
-19207312,6948242
-19403124,5170898
-10773532,7280273
-276413,373718262
644524,839355469
-7564985,11523438
-14533446,0717773
-14362353,5444336
-10834226,9812622
-11013937,6806641
-15578708,6665039
-16213954,4628906
-6641814,50244141
4923749,26495361
4949775,77490234
-5625308,65332031
-14471278,5063477
-15203521,7524414
-12449319,4633179
-14435211,2861328
-22220500,8256836
-25324176,5014648
-14867364,4042969
-1037347,70812988
-1214188,61230469
-13534216,0463867
-21784818,6230469
-18843071,036377
-12019283,0689087
-12363065,8271484
-21788896,6591797
-27608805,6010742
-18261052,7241211
-4069429,74328613
-3219841,19433594
-12933742,6572266
-16061457,7924805
-6529011,04003906
6023616,2489624
8735739,2109375
-863324,071777344
-9698960,85595703
-4850317,30566406
5677470,23077393
5248310,44042969
-3725694,64794922
-5371048,67626953
5333774,58300781
17454184,5309448
17250168,9863281
4152183,85693359
-5790466,89746094
340052,185546875
11992571,8027954
9899158,56542969
-5001874,60888672
-16106080,2216797
-16017860,638916
-12433114,3463135
-16127254,871582
-27056834,1777344
-30954390,7792969
-18602227,8044434
-3616408,85717773
-5125505,75927734
-20280497,2275391
-30148688,590332
-26203327,402832
-17394220,4068604
-16791876,4658203
-26190611,3520508
-32174206,7890625
-24663202,3024902
-13929158,1599121
-15360281,5888672
-25036394,3164063
-25798939,7114258
-12530869,0092773
2392837,90374756
4338326,70507813
-7905943,18505859
-19210076,9785156
-17295929,7106934
-10199911,1882629
-12526370,1005859
-22191552,6381836
-27112637,6201172
-27100296,9233398
-30487627,1419373
-39413559,3769531
-47688500,1230469
-46776698,5356445
-36602106,3269043
-28522499,1177673
-32085030,2758789
-44140922,9672852
-55556959,4160156
-61936481,0319824
-64239759,3305359
-65122272,392334
-65051093,9946289
-62133073,6757813
-57804589,2404785
-56724061,8001709
-60161752,6428223
-63721844,2602539
-61829717,4912109
-53817496,7158203
-44834478,1544495
-41280487,107666
-44764240,2729492
-51598352,4760742
-58595046,5202637
-64187543,3214738
-65958154,2541504
-61128475,4741211
-48620207,864502
-31800376,1503906
-18207514,1608925
-14584601,5372314
-21270475,5810547
-32521444,3217773
-42765859,1876221
-48855527,855896
-48778033,5224609
-41836984,9929199
-29007372,5854492
-14071101,5809326
-3163243,93875122
-852024,993530273
-6107068,32189941
-13663414,8519287
-19515624,736084
-22075219,1430664
-20776243,0487061
-15880222,4747314
-8181934,68664551
287952,166931152
6334175,89024353
7842959,83535767
5993489,39532471
4217234,53063965
4415904,24346924
6051335,09127808
8025997,13611603
9832172,49078369
11543191,7192383
13060750,062561
14018852,2665863
14532370,3138199
15818331,3930702
19361512,7628708
24696712,2855835
29275558,5475159
30806693,5728607
28956216,3801117
25160576,1089096
21344316,3218746
19034766,665329
19235527,1843262
22702602,9827271
29476012,7043457
37543448,100647
43397099,6270256
44535178,2888489
41083681,9062195
35314022,5125427
29891775,931076
26720531,147543
26748996,9645081
30329242,1235352
37076583,3222046
44798735,1744995
50136436,0609856
50954541,8853455
47668937,8216095
42577670,8910065
38093384,9627075
35623371,4078522
35553074,4313087
37961367,0340424
42734497,7521667
48365574,6373444
52258845,1629715
52753407,3512001
50253893,9622078
46765085,5775909
44117087,2798691
42803483,2255173
42525479,4292145
43452055,9652543
46042128,2359161
49398377,1803589
51744874,4087067
52142520,2954865
51041001,2102585
49923144,5865555
49784873,7214127
50156274,9612732
49995102,8764343
49373959,510849
49458287,6800957
50440456,3754158
51401818,8644562
51803584,5782623
51962253,3479767
52721368,7489548
54270549,3059635
55527895,3715744
55273894,1441345
53826235,7652435
52678081,6624908
52345768,5263438
52344196,5467453
52363508,3061218
52582459,1647797
53609251,2150421
55427321,89011
56794951,0698853
56439090,9333038
54773292,3358612
53435167,8388443
52968200,8821964
52861620,2120743
52814228,729599
52969383,3999939
53902099,6775665
55646313,9019699
57006729,1163559
56726628,8129578
55210603,3044968
54025575,1727295
53635763,5010915
53486110,4132118
53249481,9598465
53063153,7520981
53547326,7555618
54857223,8374557
55959891,4275751
55707068,4021912
54490276,2793655
53725017,0812988
53667725,5424557
53633877,0791626
53261668,9098625
52706132,6574974
52662561,0824547
53450312,0308952
54237427,3228788
53961882,8984556
52961109,376749
52549062,7867451
52838669,1130409
52981620,1515236
52487579,2536945
51479958,7469261
50821495,4700937
51096153,252964
51620643,6195798
51369857,1653252
50640356,0357399
50568394,8254967
51091741,6919403
51353200,7009716
50932173,2392447
49978792,3811035
49327012,4622269
49544001,850565
49965480,322099
49590667,8436127
48736220,0282707
48566594,6130676
49053464,5982895
49325084,2444534
48899005,4132575
47880450,9090805
47071442,8547935
47052268,5839157
47269791,1772497
46800507,2572479
45925574,7889099
45771179,8435745
46302093,6130905
46624180,7282944
46208916,9055766
45122763,3054848
44227674,4157715
44179088,1699219
44368306,6262732
43833353,9008541
42912724,0023727
42736900,2581863
43223530,2949295
43507781,5653877
43090179,755644
41966408,0840702
40968135,6522827
40809627,0851593
40865348,4158697
40060102,1234646
38777294,3317604
38431725,2343674
39032225,6320724
39490179,1491508
39146092,8405419
38005621,3389778
37032916,8769379
37055459,4063759
37349684,9849448
36646812,2312775
35317443,3154945
34888329,448761
35366992,77705
35667449,3554859
35194664,8007288
33973917,2108192
33031993,8719864
33239568,8835869
33762078,5486414
33140504,546505
31696806,4302597
31117197,3850632
31499208,4549179
31739005,6841469
31216970,1667099
29901575,7379265
28899331,008316
29229227,7870407
29993573,9609154
29539586,9860573
28081142,6878967
27367953,9472885
27639750,4041977
27888883,6799192
27565123,0269547
26608857,3951721
26020869,0019073
26765573,1151123
27883350,9738493
27653682,56427
26269437,1049347
25421438,1570129
25370361,4827957
25355872,5774288
25041697,6968994
24345347,6802673
24054217,2592468
24913484,86203
25951526,9454899
25584926,2380066
24048398,2661133
23074265,6140137
23070474,1775284
23225152,7574205
23007473,6469193
22256818,7757111
21768666,0548706
22371319,0286331
23259038,9478273
22980790,3434601
21760436,9199219
21147763,3373413
21365243,0736313
21595396,7018911
21342646,3580551
20391335,1706848
19500224,0188141
19609952,2722168
20126668,2047911
19747212,8358765
18670620,364212
18325086,4941101
18830578,8034515
19282370,2285545
19185776,9871368
18430677,0390167
17796511,9519501
18130158,8823624
18796476,2882557
18541792,4095764
17538995,2025757
17117258,338028
17458380,0820313
17774688,3218338
17539864,8704376
16548360,1388702
15520492,5681305
15343833,521904
15594409,5944357
15280835,6485291
14596229,9401245
14568625,0400391
15108512,6532135
15479812,6647267
15362076,4098358
14639462,1907806
13939820,9417572
14029261,1674347
14418584,0638056
14081498,6956024
13266659,9706268
13063022,9529114
13392137,3960114
13595258,3140097
13387067,1221619
12552310,9240112
11689800,2441101
11690857,7709122
12135940,340929
11910098,8818665
11111632,2927704
10811240,7380371
11088475,0639191
11372774,0092602
11387863,6507568
10932669,2670593
10455759,0230713
10607369,4767456
10941218,552146
10523391,0589752
9621516,80812073
9302810,20329285
9533135,43128204
9709508,90653992
9556238,06445313
8867229,14317322
8178855,3734436
8240299,55434418
8616526,78383636
8320254,90641785
7524687,1162262
7256981,35299683
7526729,78484344
7759041,51216173
7690261,70082855
7124313,65626526
6614334,20239258
6904706,30433655
7478733,40683842
7298088,89294434
6528434,87850952
6169750,0456543
6281810,99185944
6407539,72774601
6388394,65863037
6067348,18707275
5862998,40779114
6332483,97319031
6925500,60517502
6698475,23361206
5914927,66651917
5559577,89117432
5627918,94823456
5666159,8866415
5510051,42106628
4954002,68452454
4432389,41964722
4652102,50213623
5205959,93054199
5065439,49325562
4274266,84033203
3879526,10435486
4113169,47645569
4429216,42918015
4432263,05265808
3868238,03060913
3214447,22213745
3229796,03501892
3606635,32654953
3440223,0007782
2788958,59753418
2588765,62559509
2954755,07303619
3302223,72439671
3269683,92263794
2687670,39028931
2086234,53163147
2176187,62145233
2603485,37814903
2512765,49407959
2031154,77638245
1968096,48893738
2259476,26154327
2432552,53872585
2345203,39579773
1880683,51411438
1488029,47035217
1779785,66500092
2316784,84427166
2164468,57347107
1460445,90960693
1176307,78462219
1396063,39329529
1607174,38849163
1542758,71526337
1025445,27397156
519680,730987549
678002,02872467
1132082,04912663
1032959,58139038
515380,384292603
407138,652816772
671266,725532532
864761,683206558
849907,412071228
458540,693344116
71390,422958374
309374,312042236
802608,676525116
644653,923652649
-66543,9071655273
-377392,671218872
-150051,172714233
128618,967235565
188179,229904175
-144106,26461792
-447635,191116333
-128812,999649048
435039,009746552
415150,379737854
-72190,713684082
-239873,212875366
-80442,7859420776
44046,8134155273
1027,26274871826
-371509,147796631
-669671,42137146
-344710,207992554
174459,448335648
58884,9081115723
-543387,541732788
-770398,072067261
-539631,378204346
-269419,395821571
-172738,698379517
-459769,824279785
-816374,920654297
-671360,467147827
-288453,613316536
-385843,702110291
-862420,43862915
-983716,761199951
-722632,02646637
-474230,581150055
-419248,246437073
-717558,997039795
-1047266,85031128
-893082,307807922
-514850,767487526
-558073,93535614
-896279,890197754
-915602,441253662
-696132,232933044
-549256,888268471
-550688,86390686
-845082,405563354
-1123744,76190186
-905006,178718567
-501614,630862236
-613078,724143982
-1162832,95819092
-1396520,31619263
-1160807,25294495
-851140,052647591
-727562,114341736
-931467,190109253
-1168385,2816925
-1013998,6177597
-697101,768636703
-772104,298194885
-1163881,56964111
-1258598,72929382
-1003197,80779266
-778118,29006958
-800986,37625885
-1173327,13572693
-1516867,58477783
-1331244,0001297
-863510,54878664
-750313,645309448
-999408,367858887
-1060975,16305542
-872035,918968201
-709990,663817883
-713736,513526917
-1017998,6499939
-1348370,4889679
-1259851,95185089
-956719,067358017
-949594,287895203
-1157464,6391449
-1140023,07406616
-953801,649490356
-815159,549387932
-768332,492637634
-953868,533966064
-1199195,94889832
-1130713,21791077
-925280,829805613
-1053302,61909485
-1391756,0229187
-1439712,50012207
-1243447,43185425
-1067776,4474864
-988066,975822449
-1133478,15078735
-1335638,71665192
-1240765,99832153
-996506,065385342
-1057760,596138
-1365456,04707336
-1453387,00200653
-1317284,83067322
-1184284,163692
-1133577,10250092
-1293826,29458618
-1503761,45513916
-1436701,82489014
-1226781,62335777
-1256404,99367523
-1469604,96601105
-1507412,96645355
-1400155,49806213
-1311953,50208139
-1267405,65190887
-1375470,0675354
-1497769,18351746
-1354617,89334869
-1117465,40469837
-1180955,59607697
-1449910,40287781
-1521567,69629669
-1431494,01414108
-1358792,79530525
-1344739,46726227
-1535949,84117126
-1775754,27696991
-1701098,90473557
-1486459,85662651
-1574078,51390076
-1832944,81864166
-1841484,46466827
-1686458,30850983
-1575183,72514439
-1546426,27903748
-1762850,06647491
-2068602,47332001
-2061308,88803864
-1885452,14336014
-2002444,79940796
-2299731,56478119
-2316005,02398682
-2127380,08829117
-1980750,6542244
-1911048,71385956
-2044642,5161438
-2231008,86096954
-2100131,53003311
-1808629,33573341
-1857672,19617462
-2175680,06256104
-2271734,75527954
-2174434,90221786
-2104434,45183659
-2071217,00706482
-2168043,44537354
-2233062,9731369
-1928379,46414948
-1454926,76423359
-1364552,20274353
-1653108,98614502
-1837624,83276367
-1852131,88485718
-1842163,77264977
-1827566,77639008
-1907243,97619629
-1926587,08851624
-1627270,43067551
-1241372,15690994
-1208189,31363678
-1458978,12420654
-1578730,6469574
-1535754,11476135
-1474126,30428123
-1449181,22171021
-1603908,04164124
-1783950,29175568
-1680327,33512115
-1501613,76564789
-1675125,9417038
-2030932,7016449
-2041545,42334747
-1752215,8805809
-1508542,38977146
-1480358,19686127
-1771101,33849335
-2077768,00540161
-1987842,41600037
-1704386,38291931
-1681552,94382477
-1835758,99346161
-1768659,34750366
-1545181,31713867
-1391628,04877949
-1343780,57180023
-1468292,76200867
-1591064,61411285
-1434978,23298264
-1179180,26582813
-1220152,34196472
-1469818,68999481
-1506871,15590668
-1353450,34510422
-1234752,14931202
-1213000,42722321
-1373362,62805939
-1546179,12677765
-1426062,66336441
-1143385,31020737
-1103902,08010864
-1308949,25834656
-1369487,52632904
-1238804,30376053
-1108860,25398731
-1074051,23551178
-1236584,60173798
-1390577,63524628
-1226156,78924179
-947191,590486526
-973784,803398132
-1241298,18225861
-1315954,4499054
-1148623,5088768
-969022,894441128
-891039,198570251
-995505,483100891
-1107245,25939178
-944315,858356476
-650064,638503551
-618662,297721863
-848574,807739258
-944337,440643311
-820243,651679993
-672772,142819881
-636079,200881958
-821726,686653137
-1045187,5315094
-999865,080383301
-807888,106143475
-808023,963989258
-973851,428787231
-974934,02381897
-790256,071323395
-618156,391991615
-591824,288318634
-850307,670059204
-1178736,7191391
-1172151,76336288
-940389,107011318
-942527,536422729
-1234643,40132141
-1369578,18206024
-1171448,52059937
-881677,420808792
-722170,384479523
-815042,130088806
-957255,415138245
-832965,583656311
-578225,420882702
-556051,865215302
-751607,896705627
-828858,457580566
-729041,293304443
-613499,292673111
-580983,635387421
-714300,250671387
-823955,472946167
-639930,312999725
-358198,690116882
-393740,065208435
-723055,557029724
-894018,419494629
-765020,127243042
-574072,630211353
-520533,785820007
-695753,027511597
-879784,479286194
-788127,470726013
-551450,116742134
-475248,205127716
-559618,236701965
-556264,091171265
-453473,204742432
-380061,369612217
-400814,025348663
-611688,370429993
-841441,9610672
-793088,374526978
-605651,301610947
-673239,278839111
-970764,256835938
-1066289,54605103
-880933,375476837
-664917,298231125
-570837,272609711
-696039,896125793
-864309,133071899
-772086,32957077
-529454,080330849
-484670,1183815
-657254,134468079
-740146,387199402
-666192,032848358
-575862,132352829
-530653,115100861
-606185,917930603
-672143,594070435
-490840,580318451
-220195,417705536
-246540,115913391
-529692,824157715
-649966,135772705
-554848,045642853
-457870,849988937
-464885,760349274
-665617,203666687
-854926,245315552
-708941,345066071
-396452,536513329
-341942,929409027
-540379,816879272
-617707,614997864
-511612,811946869
-390871,864823818
-329635,029575348
-419774,000434875
-531649,988731384
-405908,835662842
-167054,2555933
-182486,459911346
-429618,798988342
-515128,020965576
-394476,621604919
-270583,598445415
-222422,044712067
-340221,762702942
-496787,140228271
-417483,604846954
-192972,098073483
-162990,952724457
-318115,523483276
-340672,974594116
-231479,913589478
-146583,528404236
-123462,800891876
-267267,086097717
-457941,160339355
-400777,08694458
-179391,417227268
-136275,778862
-292662,871536255
-353263,531356812
-267285,515666962
-156020,342323303
-82994,3972511292
-181288,623680115
-322330,163482666
-197037,400772095
58574,7706894875
49772,6803894043
-194435,076759338
-299057,380050659
-200420,853218079
-55838,0758299828
29361,8731231689
-87143,7216415405
-269557,93951416
-195569,557121277
43707,6335730553
55573,1914482117
-180576,991928101
-289968,977714539
-173275,548141479
6002,24520492554
117334,635372162
13084,7058486938
-177026,642486572
-148764,810909271
15637,9004464149
-16649,5850372314
-219084,239395142
-254287,412475586
-104219,84286499
51281,4562797546
134420,29580307
44478,5127944946
-90314,0938873291
-4196,91130065918
190585,309170723
193925,22996521
48188,9874725342
15772,1422271729
94434,5738945007
167519,762928009
222492,489711761
199678,035369873
196851,112678528
407729,033180237
667652,804608345
650471,531166077
418148,838768005
308422,015953064
367166,14597702
433525,64369154
426083,225479126
246300,069976807
-12398,2256088257
-62220,0279350281
97006,8018507957
185060,330101013
138296,65813446
161093,122688293
276301,267982483
366046,244603157
362827,91337204
175106,771286011
-57508,8131713867
-73337,9088478088
30254,2651472092
-27472,0899429321
-221673,141906738
-261912,32195282
-99719,8670005798
77972,890938282
117150,98311615
-101052,45690918
-369126,041778564
-323057,262874603
-76934,6606998444
-31635,8641281128
-198337,555923462
-252176,154342651
-144765,617351532
-17408,2023715973
76262,3286895752
47226,030670166
-24909,8553771973
66395,831703186
219565,886432648
151941,446136475
-92754,7480926514
-198765,651519775
-132607,403633118
-50908,315433979
-14053,9902992249
-116272,410774231
-263542,521827698
-198543,174938202
16658,5234827995
70638,4517974854
-92365,4514389038
-202970,331871033
-171901,686344147
-108498,961675167
-82433,8141403198
-204001,974830627
-365629,895561218
-311603,607009888
-149833,136861801
-200849,021900177
-435971,559532166
-519888,908531189
-408323,655727386
-284134,790541649
-229547,894145966
-317860,914039612
-413474,754379272
-252832,228984833
56498,0236897469
147160,202957153
-32469,6496353149
-170274,768554688
-160988,768035889
-113168,008496761
-93442,4465637207
-210097,725914001
-351026,567626953
-254270,170795441
-32916,4866585732
-23711,4867515564
-221911,363677979
-309585,520812988
-222445,900840759
-109589,930207253
-50258,402885437
-148897,45425415
-303236,326431274
-232486,462005615
-17636,5413036346
-59088,1984863281
-366252,999183655
-487302,954055786
-327182,410839081
-145348,517101765
-108607,495010376
-329197,633575439
-605224,297111511
-577354,398445129
-373709,145608902
-420541,537479401
-692738,520515442
-741063,837844849
-512224,122821808
-302742,25184679
-325813,589962006
-739728,728721619
-1272039,02981567
-1446750,47220612
-1389048,49450731
-1581601,20151901
-1990546,34299469
-2038890,21339417
-1635076,81612778
-1234778,42977428
-1190884,47901917
-1726762,59079742
-2457652,62337494
-2666535,7813797
-2501602,51464081
-2719734,00939178
-3347115,40704346
-3523742,96453857
-3044996,87273407
-2539583,98921394
-2458062,92578125
-3054584,4704895
-3834148,10057068
-3848524,21269989
-3298071,00107765
-3217134,9905777
-3671095,78137207
-3782308,00518036
-3508644,16986465
-3331817,60270023
-3369645,33084106
-3837952,59365845
-4298079,36566162
-3858062,88072968
-2955668,37251282
-2916041,77677917
-3831246,82295227
-4454903,74197388
-4380035,11682892
-4111516,73958206
-3902980,73397064
-4066009,44995117
-4253583,60227966
-3590421,70890808
-2533589,7086277
-2449919,28609467
-3384272,57275391
-4017069,59217834
-3977414,38253021
-3789935,35232353
-3648294,44346619
-3846552,49465942
-4041275,06837463
-3341789,98505402
-2220192,45656586
-2091699,60263062
-3050386,02905273
-3704000,73786926
-3565085,72974396
-3246047,81896591
-3127569,08131409
-3518815,30255127
-3893183,82713318
-3227476,18347168
-2030079,10906029
-1788741,15788269
-2545992,59713745
-2906149,44909668
-2563173,23680115
-2183500,28448486
-2054273,12913513
-2496665,27993774
-3043929,52359009
-2609285,52360535
-1582759,47208595
-1399459,15588379
-2136385,49462891
-2428088,96282959
-1952090,46842957
-1419582,05294037
-1185615,3074646
-1588051,41656494
-2167576,09100342
-1829839,55752563
-914040,823597908
-812573,561691284
-1620176,65008545
-1935471,32421875
-1356651,83953857
-677537,068349838
-390103,991043091
-903146,610809326
-1746950,11602783
-1660005,26153564
-837812,341575623
-689543,451553345
-1343174,69775391
-1457130,24899292
-767761,094161987
-100887,788466454
120778,1068573
-448519,156768799
-1274458,08535767
-1107900,22956848
-235297,591351748
-113126,694732666
-891329,168701172
-1176445,89279175
-552443,59602356
163575,272077799
447823,203918457
-56788,0903320313
-801790,597900391
-584585,090911865
298934,454479814
463273,002334595
-206454,514251709
-415087,528839111
138175,943817139
708665,765505791
932404,597259521
484331,297515869
-192132,010528564
39889,1790466309
919468,257442951
1057572,01031494
251998,147369385
-159801,978240967
303485,012496948
907379,982198238
1162775,70220947
701076,95123291
19758,9440002441
315671,378387451
1295090,69829512
1500220,57603455
814211,101013184
569653,180908203
1030022,60978699
1493799,32646275
1712609,73428345
1347075,38244629
713275,451019287
917688,208099365
1734010,82139492
1811374,12590027
1108728,73144531
893090,001556396
1316533,57855225
1707210,14758253
1890368,09901428
1558754,52514648
1022719,87823486
1314146,532547
2172278,47993135
2264411,02792358
1495377,18429565
1134196,54837036
1470752,4387207
1874957,78093147
2067630,84378052
1686912,60198975
1089076,36907959
1311456,75592041
2060107,8351512
2052210,02749634
1247591,56265259
914121,757324219
1341874,48207092
1850806,63899708
2101103,98326111
1743460,92697144
1165753,07116699
1422704,02075195
2224133,07614517
2241087,36860657
1272507,35366821
656229,066955566
1034580,28414917
1692337,80269742
1973012,27130127
1495808,73950195
838629,114685059
1152855,24569702
2126222,24453151
2393396,13510132
1686766,46948242
1233458,9203186
1608595,55674744
2157000,66938543
2331052,58384705
1791732,53030396
1073201,31262207
1302458,69195557
2203125,74545193
2441522,10058594
1808877,30697632
1502614,75021362
1927755,05323792
2412056,20119238
2549713,62338257
2067011,34011841
1429994,70492554
1673987,20100403
2503446,7193718
2613056,02688599
1865850,26751709
1520405,3109436
1954816,55471802
2445290,64618874
2563195,42771912
2023024,46359253
1311804,89282227
1516128,46856689
2377934,39034462
2563670,81060791
1705894,58459473
1042074,46899414
1371919,03813171
2045604,86777115
2284599,67288208
1702336,89743042
948432,34072876
1160958,6058197
2033295,45443726
2254093,48884583
1543714,14266968
1101730,04937744
1541952,39347839
2189864,76322365
2412652,12084961
1841318,72375488
1016128,26898193
1104003,46104431
1917102,52357101
2186126,0796814
1652781,94909668
1388858,60543823
1772132,01577759
2222861,00150108
2416021,88604736
2049572,9034729
1459892,04446411
1610391,82542419
2261033,79359245
2240249,66464233
1515488,6706543
1232559,02127075
1599700,26989746
1975176,10875702
2116116,83177185
1775816,6494751
1290805,89239502
1581252,41529846
2364402,9716959
2394474,9400177
1533892,05209351
1009656,43759155
1273025,88160706
1700843,68687534
1889054,09837341
1533586,8230896
1015282,3951416
1285118,0103302
2076329,97189522
2176103,90313721
1438946,69216919
1025217,15594482
1325285,08865356
1723684,08635807
1836021,00921631
1386805,56777954
823269,959136963
1087898,17411804
1845279,81677723
1882751,89891052
1009968,18582153
424430,927825928
752952,844772339
1348578,11177063
1572002,35960388
1095908,49908447
459596,239318848
680574,313156128
1501239,08720684
1741472,21893311
1114085,38876343
671228,446533203
989980,146743774
1500465,27902317
1668146,15739441
1182447,37985229
515356,417053223
661338,988922119
1402016,14116478
1601848,11540222
1029921,76043701
703709,129821777
1057665,20587158
1507360,03220177
1615052,70825195
1103628,00985718
433039,256072998
617758,166351318
1444179,99841118
1674909,46266174
932052,702667236
320515,317962646
582395,151123047
1167466,80650997
1393638,53437805
896971,583007813
241663,341583252
452516,366241455
1242802,31378174
1415890,51019287
706174,752746582
218748,212677002
581998,256637573
1196239,2109623
1433727,15187073
987235,323150635
376907,374542236
552499,109558105
1257886,56151104
1370748,71264648
624154,720947266
103529,777893066
464106,199691772
1084913,23921013
1265431,18154907
695055,193817139
-2050,30026245117
210567,087860107
1051660,93668556
1332430,92247009
725057,965301514
251749,193572998
564632,596664429
1120592,69730377
1264357,72137451
692693,154342651
21670,3399353027
216697,898071289
961002,252170563
1123843,697052
428145,615142822
-83559,441986084
261192,098831177
897763,78565979
1124626,74629211
603423,77116394
-67398,9633178711
111661,328033447
878463,197034836
1107584,078125
467091,490905762
-51173,9134521484
238200,021514893
830998,278964996
1086004,96615601
649491,553085327
16094,2517852783
150961,448196411
855186,630115509
1050016,40319824
416204,137817383
-90681,05909729
172625,533355713
725226,304628372
986420,091796875
632505,816345215
102525,249252319
282431,051818848
982465,492301941
1175737,14653015
536855,388824463
-2175,25184631348
215188,042297363
720498,280099869
941774,565368652
565299,630966187
23025,8940582275
205239,479507446
910944,184375763
1088780,10398865
509415,946014404
130682,115905762
418917,992019653
849652,70207119
973176,888580322
542979,144393921
-11868,8610076904
156899,934677124
808733,551841736
924106,121948242
269375,014556885
-207978,072357178
64321,4562530518
570568,945242882
744642,41003418
314956,386306763
-234130,695526123
-29522,0858459473
690703,211981773
893657,720703125
314840,237213135
-124579,083618164
136873,088684082
605107,711193085
728568,851051331
254673,102294922
-299988,943878174
-88629,2093658447
614068,175832748
801893,846069336
221268,407226563
-228210,573638916
38681,8735961914
544478,038497925
692679,071090698
203757,249542236
-373760,043533325
-164838,682128906
538450,931081772
694423,100601196
84810,7482910156
-330002,633911133
-2886,90176391602
539848,939529419
736967,228240967
338838,636245728
-180899,539916992
-20061,6519622803
598783,017127991
733772,153785706
96725,0894927979
-428493,242416382
-174852,083618164
389566,590620041
609266,691131592
180754,60395813
-399083,080596924
-286649,516937256
319578,615970612
506853,739967346
-50099,2705230713
-556435,187011719
-316384,444000244
253417,319505692
450860,713737488
-32351,4984741211
-627041,190887451
-457631,182022095
263048,099208832
578687,156082153
135482,625793457
-287193,934234619
-54256,3894042969
440397,223709106
627291,95565033
244560,826065063
-248951,010391235
-96015,132598877
481115,954059601
631286,132102966
132801,856628418
-251703,207366943
-5695,34022521973
450378,537242889
578575,256393433
152013,693588257
-335023,481430054
-134423,11819458
515207,490003586
734746,665420532
252395,127868652
-177803,851776123
13227,1853027344
463363,024730682
651094,979309082
304156,318649292
-164804,653381348
-28458,9400939941
530545,567754745
701617,03465271
263233,32244873
-73922,545715332
142293,810775757
552594,886802673
740044,683074951
418308,773529053
-114047,43637085
-116075,234619141
334441,988119125
469659,295936584
104696,623458862
-107920,438339233
119073,211448669
448148,518215179
644764,741676331
502684,091308594
215491,463043213
352430,60459137
778532,368488312
799162,036354065
275608,109130859
-114011,085144043
9212,27061462402
317755,212163925
498910,397979736
348645,032348633
111219,268234253
336922,875686646
837084,535617828
896943,950080872
366759,424530029
-50854,2480163574
84543,2375335693
416819,07235527
541432,673362732
245902,26423645
-156021,302185059
-34862,2931900024
472017,208380699
645135,344245911
330422,300292969
151148,608276367
374446,057983398
640472,176325798
683383,515678406
345305,825561523
-116719,253540039
-121266,861999512
247142,755797386
335774,038223267
-41873,1465148926
-278085,50491333
-37984,224395752
304836,304591179
397644,360305786
95302,8342895508
-249648,727127075
-70488,6761932373
432556,904067993
575802,914207458
208906,603561401
-65195,7769470215
100862,035430908
388747,231463432
485070,469764709
213056,392730713
-179066,102157593
-136166,842391968
251183,526659966
359891,820129395
49146,6321563721
-120533,607467651
87377,2016296387
343131,750097275
400532,877090454
89891,9356231689
-365830,256942749
-411968,307739258
-110254,716911316
-69672,2752761841
-432369,598403931
-618913,259307861
-386235,412223816
-84697,6838474274
17248,9264144897
-252324,569335938
-633493,304519653
-568667,414894104
-197275,262342453
-182113,215553284
-615355,962341309
-853186,858169556
-655156,114776611
-375845,05819416
-245603,916397095
-424209,429489136
-695805,359329224
-532561,528366089
-84192,1708784103
-23754,1368331909
-505998,794754028
-907276,495788574
-831849,37386322
-562154,580522537
-422229,622039795
-631662,981735229
-945898,808425903
-785040,637626648
-289212,552462101
-149990,331138611
-501034,09223938
-741445,480819702
-609886,396614075
-405316,087641239
-322515,774375916
-495062,263870239
-704480,311691284
-461253,287200928
39157,8176941872
106549,840454102
-344191,485031128
-644156,835647583
-508491,293289185
-279501,672487259
-202100,82208252
-444103,194046021
-814788,857208252
-757092,933776855
-317707,474101067
-131935,429504395
-363832,148971558
-494072,936599731
-335415,238197327
-160204,887129784
-109936,97203064
-324818,072006226
-614080,484115601
-477162,237159729
-52665,7649893761
25439,0314941406
-316383,097976685
-498715,303421021
-334772,223503113
-116571,567344189
4015,71529388428
-123666,393051147
-364617,413604736
-291314,622383118
-31518,8416118622
-107094,700759888
-489205,497329712
-607567,822143555
-364417,575309753
-121287,838739395
-35321,914352417
-239354,503219604
-577259,909347534
-550082,801078796
-219877,199615955
-156977,756019592
-452676,355957031
-583859,780639648
-391745,951019287
-182212,810834408
-101319,428215027
-258887,594528198
-499657,143478394
-393998,644958496
-44512,4677381516
9827,56655883789
-271456,851394653
-374785,905288696
-208052,849624634
-67481,5531978607
-46390,8816986084
-254560,09664917
-550560,561126709
-473413,293983459
-98521,926697731
-10182,0458755493
-330030,79359436
-528597,959503174
-388397,146865845
-181579,496605873
-90282,3252105713
-261381,988128662
-512100,661178589
-386267,504257202
-34951,8773050308
-37845,1598434448
-486877,890960693
-797596,569717407
-629072,643287659
-300114,405639172
-155182,334701538
-390309,170837402
-757886,746490479
-667901,100837708
-180627,73786068
59229,5954208374
-153293,392562866
-328297,435882568
-194903,760681152
12813,2258625031
99428,6580734253
-84180,0319213867
-382863,070755005
-363570,542900085
-94680,821138382
-63696,8399887085
-367300,289337158
-531185,913864136
-343172,373176575
-87277,0238876343
27887,7361755371
-138027,876853943
-438500,101959229
-432891,406166077
-153227,276711464
-84855,3465805054
-355267,098220825
-513595,825576782
-355354,279563904
-143935,197050095
-48049,3282089233
-198474,885635376
-469977,849334717
-408978,584526062
-41164,2145280838
101214,252296448
-155608,653678894
-371222,546676636
-293516,985595703
-128530,304383278
-38110,3627166748
-145776,580825806
-315697,630996704
-146259,382263184
259991,616957664
353479,726409912
4865,91711425781
-279003,014137268
-199629,870391846
6410,14382648468
106501,950004578
-51078,4967956543
-340979,044197083
-350664,935432434
-74132,9137849808
59485,6328964233
-84675,1733779907
-155510,692649841
-17038,0433578491
130379,299506187
180030,816680908
40043,4512939453
-161209,182395935
-85749,0079956055
198157,291505814
280032,279502869
51768,763420105
-118186,397544861
-32905,6065597534
130275,814096451
227293,13760376
131264,29535675
-55374,3590621948
2274,08352661133
253337,147623062
287271,947380066
-40229,6948013306
-318738,086372375
-222505,472290039
42477,6217441559
186452,870876312
41148,2795639038
-240160,010971069
-256647,93598938
-6417,87074184418
118635,461528778
-318,080337524414
-43075,0497283936
106360,843605042
255118,755049706
289069,698406219
106034,078369141
-142801,523330688
-89004,3431015015
180307,309141159
239173,385253906
-13198,050201416
-205762,748832703
-108761,417732239
97702,5731210709
226061,423088074
147098,580360413
-45847,5743331909
-43080,8698730469
151267,741021156
214936,924556732
33805,1195983887
-97352,9624710083
-7759,75256347656
139632,845817089
218437,451953888
139988,087471008
-5189,37720489502
61738,7251815796
293872,952947617
336697,594417572
94392,6893844604
-85170,8306427002
-3038,06243133545
148255,702018261
196130,447151184
41223,2042694092
-175304,28755188
-119838,418746948
136422,391997337
208254,127006531
11028,888923645
-118955,639305115
-9332,22930145264
145553,636697292
188548,894618988
53263,3564605713
-119712,688369751
-58115,4164886475
164383,629818439
232208,677909851
60231,0236206055
-73028,9460449219
9023,14245223999
144851,977711678
179224,456912994
37149,5339431763
-169235,079032898
-159738,824985504
69124,9422569275
205614,935276031
94382,6366729736
-19862,7188110352
41459,7840309143
152829,568496704
188308,946578979
46737,8102111816
-175823,870231628
-170572,137863159
64723,7786102295
205868,679096222
99035,5313034058
-35843,2217712402
-10545,6847953796
103083,848244667
200334,660827637
184880,545631409
114148,924049377
164563,87556076
262782,48214817
179018,31652832
-61602,2934951782
-162486,972122192
-46776,8165054321
97554,9160366058
171318,617664337
113119,493621826
-10681,3456573486
9111,64123153687
134544,453210831
122029,373180389
-72569,5597381592
-196201,575439453
-116436,12701416
12195,4975032806
59346,2011146545
-38849,1753387451
-179506,43561554
-131132,611248016
62064,352145195
151974,95306778
72696,2635955811
5484,36297607422
45184,8708229065
98732,1719589233
95621,4740486145
-24249,5495681763
-156066,932807922
-78638,4121894836
120940,496011734
168278,410938263
11357,5961685181
-113095,063934326
-61585,7229042053
49110,0398187637
98022,2208709717
-6757,14952087402
-187995,555480957
-186924,494846344
-5607,7775478363
76058,5717201233
-41989,6007766724
-139840,928276062
-82890,9749336243
28715,7745718956
112477,133903503
106613,629142761
63222,8845977783
170659,443069458
399075,302055359
496057,08026886
377939,13633728
247742,471855164
240225,370716095
289246,882605553
313355,067157745
191226,605998993
-66640,3885421753
-216848,463035583
-192260,73856926
-189555,59709549
-274351,898899078
-279618,815914154
-152884,50643158
-7177,65195035934
94062,5263824463
85325,5591049194
1341,51203536987
-5902,01763153076
47490,6950483322
21945,111907959
-109110,309555054
-197277,942554474
-158455,433273315
-78562,6426877975
-28244,4458427429
-77397,266658783
-197813,31987381
-226703,802433014
-165216,915109873
-165562,774940491
-257605,225090027
-307774,929870605
-264008,632141113
-207121,103983879
-177453,888259888
-217759,869831085
-269712,337432861
-165729,988155365
21364,6062812805
53715,4599723816
-103040,14320755
-241720,301361084
-241321,449985504
-190386,350047827
-172930,608203888
-252716,302768707
-380366,781726837
-358063,243190765
-165660,434528351
-9065,27872848511
-14390,6526184082
-81436,5072250366
-105944,933261871
-99299,9488651752
-85344,4236984253
-136926,356208801
-223327,156230927
-159210,307949066
30892,0173242092
101413,858196259
-34374,812210083
-179751,006965637
-178634,034156799
-88530,1865093708
1372,14518547058
17848,4112892151
-23442,8027381897
-21378,1366157532
-1885,1306540966
-97850,2401790619
-296608,181594849
-371910,39478302
-244526,800109863
-95025,7173519135
-54228,4082260132
-153305,170330048
-307033,299137115
-342006,296783447
-242132,669523954
-150895,050857544
-144612,548213959
-137451,86932373
-78957,9796829224
-38756,5288691521
-42738,7794723511
-103452,709537506
-211796,18296814
-262029,511398315
-194250,835697651
-86178,1493682861
-46521,8729286194
-61077,2717552185
-70314,4900474548
-77422,0362591743
-76604,0890922546
-76728,8936271667
-50975,0252571106
72224,3762931824
219931,994436264
230863,414796829
96807,9179954529
-13707,4831695557
-11975,6886482239
29549,050593853
48320,2794494629
-2754,63124084473
-101791,822589874
-124537,137760162
-52810,1620631218
4684,89943504333
-1607,17432403564
-8297,4866027832
23670,9837532043
64037,5138087273
90312,0742340088
55018,3739471436
-32511,5104064941
-68699,2667922974
-51425,8951129913
-62720,9656219482
-100451,368270874
-97154,085144043
-50323,1064968109
-261,159327030182
44161,4342288971
43675,6723709106
1915,28895187378
10045,1428127289
73963,4466719627
96224,6590156555
33373,2892875671
-34897,7892417908
-40976,6957321167
-576,601531505585
76394,7352790833
159819,043849945
201720,59614563
206308,14630127
165912,227784157
53068,1168251038
-68571,0104656219
-88920,8811454773
-25056,2234477997
20831,9319880009
24877,4127407074
8879,96675300598
-5065,21632575989
9429,14859962463
18395,583738327
-18887,7311048508
-42438,9224262238
9325,58125305176
70655,9719486237
56256,6062419415
-21819,6984043121
-140413,967378616
-261476,299028397
-274278,356796265
-152416,771593571
-17656,6215620041
34643,2406425476
28115,4140892029
6899,7721786499
-20116,7898979187
-50672,9080324173
-121742,159395218
-219393,728294373
-214523,413145065
-105527,5715065
-65338,6746616364
-136302,636425018
-190677,024852753
-174429,869682312
-126163,084262848
-71035,2192754745
-44092,0016937256
-44848,649772644
-23710,6457061768
-6976,59078168869
-59336,4067430496
-149550,046291351
-187522,3288517
-162408,557905197
-122936,419035912
-69218,0493888855
9464,3859500885
73935,0475196838
85979,0271873474
49158,7342624664
-14715,3417329788
-58856,7054424286
-46740,2728233337
-25057,2170114517
-45811,2379124165
-92966,4467821121
-139510,275819778
-156644,650156021
-123172,634366035
-69633,0913090706
-41015,4863920212
-40208,9167613983
-37879,2926692963
-33660,5929546356
-49072,7496888638
-74624,6160860062
-111109,295398712
-163982,176252365
-190393,66706562
-167783,805049896
-132030,394057274
-104880,954280853
-80952,7890415192
-74214,2035264969
-88498,7014110088
-100126,697572231
-121386,173658371
-163161,138442993
-177145,106048584
-139995,068637133
-81444,43638134
-33785,1378831863
-29052,7078275681
-69737,9042472839
-100984,071963787
-75336,1521296501
-20715,9278869629
5433,3571472168
-1920,55057907104
-25063,514046669
-67033,9566159248
-110861,372777939
-134631,420933723
-145138,840138435
-134976,71588397
-77369,5650472641
17126,246295929
86543,0761871338
87003,0402040482
29236,2664107084
-48009,0287671089
-92445,3013420105
-89682,6287679672
-80096,5823121071
-85214,1348487437
-76540,7724490166
-31480,7829990387
3654,03641986847
-38433,891661644
-133197,731171057
-165978,285247803
-87843,2493934631
771,299955368042
1159,27932453156
-65906,6566326171
-122524,834788322
-120327,803951263
-86221,1527147293
-76288,6368660927
-102267,610993132
-124692,017631531
-87414,8773241043
-18856,5721263885
-14339,277094841
-81391,5261938274
-144086,242790699
-152680,469908714
-128067,301986217
-113231,933782578
-99324,1987899542
-45005,0882649422
31576,8277487755
54271,0073533058
927,826726436615
-72720,1344250441
-104074,239091396
-71962,5063920021
-19001,5700712204
616,285698890686
-10677,5142300129
-8912,57174324989
34840,6069431305
71486,4374299049
44187,6274785995
-9673,96358799934
-29045,2845964432
6491,81986856461
67206,9194164276
79770,8410654068
21427,83172369
-35513,1460469663
-25270,4759039879
16308,9142017365
23450,9054987431
5495,08285236359
6149,33735769987
43756,1783750057
80351,0243610144
40829,0032622814
-71061,1678848267
-140943,619774938
-101956,663437009
-33919,2868008614
-17990,2718693018
-36849,3336811066
-47447,2378932238
-34477,6781685352
-31233,5279883146
-56991,2258130908
-54805,9170324802
36866,0104494095
196224,61830163
280304,521798372
205502,948013306
91376,8394839764
66066,1627669334
137360,587115288
202420,173769474
152047,615786791
11323,4707957804
-105813,719007492
-107742,846271992
-45216,515704155
-33732,0809216499
-57303,4541607499
-38522,5091991425
37869,5807390213
88530,7341299057
20700,2656092644
-131755,307909846
-242300,93088913
-206804,922046661
-104047,961981773
-94563,1476340294
-157300,461966753
-171096,164702892
-86192,8122940063
5232,55603599548
-8180,74053573608
-66260,4487125874
-46526,1126978397
52998,2852478027
91317,050822258
-12232,293431282
-146340,900841236
-179612,841291666
-56469,1264410019
148620,330779076
251605,192044258
195801,647658348
116340,869131088
132390,228993416
168735,112065315
112172,106258392
4571,06709194183
-60922,433123827
-25841,5792837143
51530,1850204468
29073,3457813263
-74586,8294820786
-99199,2685170174
6779,16581344604
103245,484839439
81061,0740413666
-1004,44935369492
-58719,3119683266
-43377,1223087311
-4582,53900718689
-63806,4240961075
-188736,261378527
-213813,476991177
-82078,838763237
54832,4543714523
54827,4052753448
-29742,9493603706
-84848,5741744041
-49297,3964090347
22708,369977951
8674,01307582855
-83602,891200304
-111076,125431061
-18353,825088501
56825,6534748077
15011,0503892899
-70518,9198169708
-105580,616148949
-45213,152305603
26635,912979126
-33641,0304698944
-174908,782589197
-227741,201089859
-144111,017889023
-52103,796169281
-66028,9039077759
-138312,437648773
-172820,007482529
-98064,8482017517
39748,8615837097
91092,3457517624
31672,2690968513
-25179,6008939743
14384,6184558868
83021,1350574493
56662,5654277802
-37925,9038105011
-104123,144598007
-73130,1441688538
4624,46414375305
-7222,68759727478
-107281,316046476
-157916,672373772
-66579,906961441
50322,7754020691
37344,1572999954
-55943,6377029419
-113980,485114098
-65251,8358287811
27113,4776935577
-428,881511688232
-121510,115295649
-152058,685406685
-28444,2673301697
82921,4199523926
37236,2444400787
-74402,6171021461
-98005,3978843689
66180,8092346191
316796,185161591
395689,147344589
291828,279147029
251161,61525631
408961,92420578
553532,272407532
456982,812854767
243940,546629429
122310,800447464
173401,952665329
271604,274423599
161528,113105774
-137230,327887654
-342102,159631729
-291308,507583618
-128204,948574066
-64581,3139438629
-100915,119773865
-120608,763624191
-40100,5955371857
55632,3440933228
9983,8373260498
-117835,784736633
-138581,058425903
3992,30713272095
122892,825531006
56234,5048923492
-89689,9956901073
-157712,084980011
-70113,1799087524
84810,9710998535
90692,5091590881
-61112,9979703426
-137533,751531601
14322,0170898438
186731,477615356
129409,471652985
-46836,9306335449
-133153,045152664
-33141,3692970276
156209,214633942
189494,204069138
51983,7759814262
-16413,0468063354
114884,557289124
248360,859142303
171435,747922897
-1286,48117828369
-76897,5895881653
12963,0325050354
141779,730251312
83856,1842765808
-123765,8385396
-210872,781486511
-42910,8572158813
141969,053840637
90048,7153720856
-69997,2236800194
-113200,923566818
37242,5352249146
231084,229804993
231926,968860626
88439,5091862679
20303,6409702301
80145,3528366089
95060,7217330933
-23862,0778198242
-132710,152733803
-123571,075063705
33532,5549507141
232888,728740692
222256,560028076
-8754,87107467651
-160923,855331421
-40756,6397209167
138307,053581238
121952,712669373
-3478,50627231598
-75080,4813308716
-6098,41793060303
95999,2499237061
-18854,7691650391
-277486,933294296
-364671,334754944
-184655,673370361
8966,79257202148
-10100,1981201172
-143674,062203407
-226475,239585876
-160932,118144989
-3732,64970016479
42680,3967781067
-29960,524936676
-28331,5561103821
153323,199394226
318444,904071808
239549,982509613
33923,1777877808
-67258,1168308258
59300,505241394
267884,895050049
245846,879051208
20413,809047699
-98035,9224376678
46775,3376197815
237196,126358032
199759,689754486
15563,9997158051
-89192,4884605408
24739,0385169983
207886,430488586
127576,987377167
-151037,670992851
-225089,94336319
60678,8040657043
339611,15504837
259131,851997375
-4962,13219261169
-141758,537071228
339,017242431641
281435,485618591
345257,521053314
135325,024546623
-66690,1257762909
-34451,2605476379
79775,0089492798
25966,9812583923
-122173,72753334
-202806,361246109
-98656,2753562927
112284,492267609
120043,811138153
-83815,2255601883
-166463,162284851
32438,4545097351
240467,768787384
185611,0207901
-4334,43581199646
-118538,686920166
-22171,5863838196
181085,250785828
148475,45854187
-98118,9880228043
-177934,177364349
39138,8268699646
231310,304042816
152414,972614288
-31203,8851146698
-110381,412214279
39330,9412841797
287951,798015594
250197,82837677
-65339,2431182861
-220978,042219162
-13532,5197181702
214534,923629761
153038,883113861
-40574,5541563034
-158490,559598923
-94285,8925590515
83310,4016876221
88747,9613647461
-113836,71803093
-219149,106971741
-64849,7573661804
85109,3722686768
15254,4463119507
-122657,872232437
-183694,687610626
-80475,7347412109
100848,973892212
41097,7116012573
-249659,751220703
-401728,507099152
-225891,729888916
8189,69354248047
-638,927486419678
-150695,755475998
-250037,613861084
-171663,613182068
5575,08862304688
-37180,5549201965
-290698,889012337
-370316,831008911
-104452,46534729
153857,862854004
72292,5299949646
-168364,63203907
-297076,094993591
-193550,971717834
19223,5220718384
12485,0456581116
-224755,971741676
-351299,813522339
-175295,688476563
14478,8675842285
-84792,843170166
-299143,471701622
-361354,63948822
-150557,601654053
160130,883354187
161318,820716858
-152836,962462425
-357276,584442139
-222908,13470459
-51607,0904846191
-151520,943546295
-363954,345126152
-450016,431610107
-288444,196517944
-1458,52440643311
67621,041431427
-92086,1968822479
-145903,724863052
58833,71043396
214837,050094604
62108,6944732666
-190183,043453217
-307706,408836365
-185282,312149048
53084,978515625
35093,040802002
-248084,312651634
-387709,113952637
-172491,681968689
59628,143447876
-12627,5436973572
-206676,241031647
-289832,451629639
-149140,344039917
84648,2149887085
31858,90259552
-278297,295061111
-410146,122142792
-188907,651107788
35413,7279663086
-35655,5160865784
-225405,836206436
-317286,90687561
-198345,659362793
24900,0250473022
-148,132900238037
-267961,547677994
-388758,380056381
-169050,612922668
75277,5771331787
18210,1409683228
-185263,438453674
-297700,676193237
-176864,515235901
81730,1121749878
96010,0772666931
-171349,391824722
-319416,760192871
-106724,977531433
144590,292938232
78404,5968856812
-143279,99307251
-261136,963184357
-127012,384048462
138577,783149719
127768,423000336
-172961,47829628
-305554,041278839
-45631,2853164673
209829,490615845
108766,0846138
-136202,415665627
-270947,904724121
-165271,181983948
82236,6968002319
84875,8553886414
-178632,736067772
-284962,919689178
3434,25910949707
320735,310623169
252829,504394531
-15781,5152406693
-177302,030212402
-83971,4445724487
163833,944015503
173074,851726532
-115199,563138008
-295755,620174408
-107577,823707581
130730,216407776
56587,703666687
-146766,42417717
-212872,770606995
63,4172592163086
364184,877708435
403121,638168335
64109,2518959045
-151028,062450409
50867,7783660889
300885,866104126
204740,905715942
-38149,2842407227
-150923,096786499
-2660,6018371582
283665,893989563
280449,477020264
-45987,0753364563
-252850,337863922
-94190,2955703735
106832,700798035
33337,4877090454
-137122,133565903
-201177,339931488
-39793,506362915
244827,035583496
227980,804145813
-126666,094629288
-330475,589920044
-92428,7838897705
202960,765487671
152972,347518921
-68310,6635513306
-226575,452342987
-175241,023735046
23576,6856689453
-1973,39151000977
-260091,597169876
-337196,581050873
-29916,3255767822
286755,944137573
220167,569511414
-41295,1073913574
-212109,590419769
-129214,641014099
101600,258300781
44101,5065078735
-292737,556438446
-424847,954299927
-174104,952316284
58608,7575454712
-44490,3700485229
-264079,193376541
-350693,566059113
-149348,297241211
218039,669876099
244895,209693909
-102444,512813568
-276340,590244293
2485,26873779297
308440,784500122
203432,602180481
-104857,659605026
-283015,206047058
-140453,710586548
194694,69871521
220603,937522888
-121206,342561722
-329509,346809387
-107030,444503784
174567,116477966
86602,4057922363
-186556,463417053
-329360,758499146
-164390,034378052
175017,850219727
217315,595947266
-74522,1955318451
-249462,656154633
-38157,6887893677
237963,259933472
161367,071174622
-115022,098213196
-267343,935394287
-90479,5481872559
272090,876495361
299438,245353699
-47272,5653400421
-245079,505264282
-17368,1396408081
246758,324897766
143865,167182922
-127913,583742142
-276542,831695557
-120208,689811707
226349,148231506
244916,86933136
-127426,027914047
-360948,368679047
-169771,22933197
71124,0884780884
997,874320983887
-203138,802175522
-336528,921497345
-254502,522895813
-12048,0046844482
-39696,2415924072
-371156,430549622
-497464,098522186
-146177,318405151
251792,889732361
218548,493537903
-63408,9377422333
-262495,527954102
-159466,939468384
162313,801040649
199577,921897888
-123071,637577057
-317364,36774826
-82753,3935012817
232545,324516296
180892,206840515
-87206,0933609009
-254441,171977997
-120768,414764404
189219,500701904
174220,366416931
-199457,845790863
-384350,310516357
-80951,6026763916
257498,584037781
155257,361419678
-149726,41865921
-300536,518783569
-99464,2564697266
328092,016990662
447866,966423035
167382,485807419
-15082,3056106567
234380,957374573
535292,297798157
411673,363693237
81409,2608242035
-106058,534240723
20270,3037109375
313633,477668762
226935,12563324
-287842,336839676
-646323,635890961
-523966,950462341
-279354,032051086
-288998,005058289
-407007,052751541
-453194,043968201
-282058,833816528
59110,8524246216
98690,5076065063
-239634,451519012
-423947,142940521
-151505,587989807
152571,341369629
63370,7088851929
-205356,972288132
-374798,646747589
-268752,480506897
24530,7836151123
15925,1212081909
-325979,134738922
-449760,621749878
-72104,4944458008
326490,006629944
238434,302604675
-105527,317005157
-317445,400268555
-172175,62852478
202295,520606995
270059,347297668
-39592,6435394287
-238425,258815765
-29514,4248504639
239343,592018127
138053,308753967
-151427,640710831
-309678,664066315
-124378,890296936
281727,920219421
338724,717834473
-30049,919008255
-265438,953926086
-22197,0335617065
308075,583511353
235983,099487305
-62641,4210186005
-261669,627307892
-136638,319923401
241547,491294861
315559,054702759
-56778,526309967
-330956,129966736
-97171,3870697021
270396,859924316
238311,387252808
-40824,0680522919
-250650,731487274
-167161,822250366
161364,170967102
195905,171897888
-176357,505361557
-414070,447273254
-166748,465766907
191637,251426697
170098,500450134
-84993,633852005
-257514,673686981
-113875,597923279
244235,453079224
235271,586868286
-198460,45009613
-423629,722633362
-77419,2893829346
352268,615730286
290648,051849365
-53434,7532634735
-267665,40574646
-97109,8921890259
320718,221633911
387666,914703369
38242,447971344
-152643,397880554
140346,392311096
481878,887741089
359697,837203979
0,491420745849609
-206566,271022797
-30918,2217330933
385386,550872803
419429,981338501
-8004,2557182312
-254151,245414734
79258,8584594727
509208,252090454
427806,654251099
62081,0234508514
-152322,425922394
4944,31232452393
390909,298332214
425581,455436707
5825,71744155884
-294292,297245026
-67389,8392791748
271419,661109924
181154,295524597
-107501,725160599
-243315,453174591
-57056,5697555542
339572,353126526
372710,550888062
-66453,7038879395
-370846,023654938
-124767,621864319
235591,864822388
161996,627410889
-118119,166103363
-255525,203826904
-54241,3714675903
388117,27041626
458495,596595764
22261,4689998627
-304031,199146271
-112937,765365601
175858,838790894
84786,6073303223
-163913,08638382
-303479,823959351
-169750,922920227
183839,478927612
207440,42640686
-201268,497894287
-427066,03137207
-94946,6836624146
315069,906692505
257607,897743225
-46798,6396217346
-253994,330253601
-148372,706710815
208454,265762329
279380,445899963
-54897,8339958191
-268386,431419373
2481,58612823486
350713,482910156
271162,334945679
-29304,636882782
-255215,664955139
-226151,261474609
24355,7955627441
15550,7621154785
-328730,055271149
-486801,74672699
-194438,486656189
93779,805557251
-12907,1100006104
-242034,689250946
-363433,985561371
-259223,181251526
25661,3854827881
10606,442199707
-381471,197067261
-591558,959831238
-282372,86126709
90785,4907684326
27491,1282730103
-235328,080753326
-388286,054225922
-255206,382896423
99564,6578216553
132590,182601929
-251313,648960114
-457660,887611389
-148761,500793457
179749,087432861
41205,2064361572
-270199,774875641
-410411,326293945
-192423,444114685
265068,61100769
323845,624961853
-121278,127338409
-417921,322742462
-170333,691291809
155009,148635864
38750,9316940308
-270732,576141357
-447552,935703278
-287638,772651672
154395,251586914
263356,439033508
-133485,100681305
-434114,796600342
-253822,544120789
-9612,68737792969
-116026,034111023
-349249,973888397
-500895,97870636
-388857,836807251
-7134,0966796875
70615,7465591431
-291341,629005432
-453077,436855316
-57857,5280685425
367059,826797485
285227,452346802
-55843,8347530365
-322764,136734009
-270195,570915222
93458,161819458
149437,90461731
-270903,521482468
-524398,012641907
-178704,764595032
286923,897293091
258965,303886414
-66344,3566551208
-307960,567062378
-195227,27394104
227801,502716064
328760,822647095
-68045,2659702301
-351251,03918457
-94262,8917541504
258576,99949646
168100,160888672
-136352,62845993
-334041,037155151
-226086,511268616
144442,952850342
214347,862342834
-158601,06221962
-398013,849887848
-114329,46282196
237886,211425781
142862,926094055
-139438,370548248
-292427,508911133
-133131,775871277
259230,568099976
262097,026062012
-237125,8536129
-558027,765727997
-279208,272369385
108028,029876709
50477,7711639404
-214770,86557579
-373576,609088898
-233154,079429626
163056,959579468
235562,148109436
-166358,251737595
-442456,908473969
-186465,22076416
144713,431686401
43554,3466415405
-232353,488260269
-391092,518997192
-260090,953361511
120248,527252197
181167,080047607
-195833,208045959
-391984,849121094
-64208,3483886719
274072,228637695
142878,093910217
-157976,263702393
-312568,068527222
-150197,631446838
239411,987030029
256893,038528442
-177034,425476074
-412844,14572525
-99278,3583221436
262591,960708618
161602,748504639
-135368,337608337
-307638,872550964
-163731,306472778
250074,460525513
345413,528701782
-29597,0787467957
-292766,598655701
-12283,9039764404
412568,818145752
379475,942443848
56817,8959960938
-173333,295524597
-45632,6872024536
380356,147384644
447960,216308594
-13474,2852172852
-338866,150028229
-63353,7725372314
345877,481994629
283160,52494812
-38226,3873748779
-246936,152175903
-104906,332069397
321666,323577881
388448,520477295
-69677,9132118225
-402524,065608978
-170954,999183655
167374,483291626
83128,3433761597
-192174,320846558
-372376,551979065
-257014,845588684
145683,770812988
241506,070465088
-138994,157657623
-382535,178009033
-96580,7205047607
249460,636642456
155653,925643921
-129297,709934235
-332504,087924957
-256794,09488678
121716,08203125
232981,841911316
-112494,024929047
-336810,367614746
-63373,2619171143
262226,8412323
176261,371986389
-78817,4868621826
-248817,566101074
-128311,169342041
264988,118682861
309092,304489136
-112107,634132385
-319615,158115387
68053,3939361572
510289,201751709
434440,076255798
102301,371868134
-152524,52281189
-123109,805389404
179951,587188721
192233,623703003
-234322,403167725
-493188,793106079
-164993,364334106
267946,050811768
220453,234870911
-62037,6237487793
-240514,148193359
-103227,92527771
307564,413452148
344492,42099762
-160875,56993103
-532418,167873383
-274081,686294556
167742,330474854
148395,061851501
-149315,76506424
-362878,768398285
-250119,2315979
172092,550857544
283818,348678589
-110868,211212158
-405730,483322144
-162761,437026978
180475,513748169
68497,7025909424
-250205,529251099
-422727,762905121
-240096,256866455
234235,883087158
352794,107521057
-53525,9695625305
-353987,392101288
-98279,4061584473
281974,318984985
190329,961006165
-153540,319190979
-365205,138233185
-214564,539001465
233823,232681274
348013,61681366
-45906,7674102783
-328974,386001587
-21571,717300415
431251,475723267
357904,330566406
-27445,647190094
-261301,446315765
-32506,3175811768
560814,662567139
735507,02016449
263531,655132294
-150320,139751434
59455,4198455811
476718,347946167
415967,253707886
47688,5348434448
-233809,704299927
-180376,203582764
145360,1144104
100799,892875671
-441393,328079224
-775703,781066895
-391331,703567505
220926,61567688
279808,255348206
-80411,9711418152
-376666,628479004
-281697,522354126
143840,447784424
237469,07043457
-168248,813262939
-446139,641521454
-173928,456451416
180620,512405396
35665,6312789917
-331898,943031311
-527604,2278862
-339332,300491333
174141,514938354
332537,11781311
-83333,6366424561
-402791,196926117
-102497,140045166
373533,202102661
324592,981468201
-66935,7034873962
-321545,924015045
-144149,630477905
371165,894668579
510982,338951111
51915,40883255
-333171,366504669
-114855,635429382
266448,770812988
173468,788909912
-170467,06350708
-371611,923854828
-193234,349029541
289731,929229736
378612,904090881
-115722,878757477
-484428,804195404
-164687,007598877
388134,501434326
403880,003456116
25122,3409729004
-271945,198299408
-167522,508659363
265161,224624634
324511,565284729
-168278,369369507
-536937,858581543
-270561,691665649
202870,023712158
189390,303581238
-157385,528011322
-412777,010971069
-262165,459022522
261219,659179688
428432,218856812
-6596,51252365112
-357786,15007782
-77628,7397155762
372280,698135376
299741,400299072
-85582,0093193054
-384481,482696533
-344703,5675354
43460,0967407227
155519,192222595
-232292,635036469
-493542,728630066
-180210,643051147
215993,04637146
120528,058197021
-188612,554924011
-374634,026702881
-224978,760635376
234460,141860962
307551,714729309
-184952,338871002
-496575,198608398
-125858,335205078
401646,748672485
379306,915893555
19572,8144264221
-245911,959526062
-145159,419082642
273486,882766724
338956,934715271
-116906,031959534
-396130,426181793
-44728,4769287109
386591,145248413
267296,018821716
-92719,6059341431
-292318,034244537
-115160,632965088
375757,070755005
453098,816078186
-82989,622795105
-463816,881595612
-116501,162277222
440372,962203979
426060,403625488
42124,3106613159
-236328,88476181
-111643,600234985
385332,329452515
538644,983154297
99572,6882591248
-256378,739509583
1735,2255859375
419321,815139771
327702,475280762
-33167,7253341675
-243794,027896881
-57916,5572662354
467970,569503784
595463,661117554
82184,314201355
-355589,558616638
-101455,74206543
433653,294845581
459040,826705933
95327,4889068604
-183065,180835724
-41266,3376922607
473394,314407349
594110,82774353
66431,5725822449
-361187,396579742
-71417,583694458
460319,87713623
435400,013015747
28380,2439002991
-268558,544734955
-125657,016357422
413860,39793396
585991,804595947
121933,371826172
-269613,902252197
-69472,1629333496
234552,518600464
78951,1779632568
-239237,474887848
-430992,149898529
-337022,384811401
56860,3999023438
120377,890777588
-352693,138916016
-658424,62210083
-274046,961517334
271885,882720947
260768,377960205
-80806,8522720337
-353184,679523468
-298016,764038086
99502,6421508789
185044,014297485
-256237,57477951
-549607,406394958
-185978,257614136
342863,103469849
312290,408248901
-69436,4349632263
-354068,434803009
-239651,47277832
246939,245727539
349150,308761597
-185952,461952209
-609458,09286499
-326799,830673218
181460,385238647
156225,533599854
-217576,119953156
-490938,440841675
-371001,972122192
107178,877563477
224777,02571106
-239429,44733429
-571399,319965363
-243390,460235596
243666,08555603
163033,990737915
-255407,128795624
-530566,638298035
-353182,647018433
237801,248901367
465294,869567871
32007,1918144226
-356465,470294952
-75983,7643585205
473621,865432739
478694,029434204
29818,1217041016
-329160,465827942
-200642,798736572
343326,996994019
502714,990005493
-4996,01284790039
-461441,629524231
-228871,290115356
282822,912811279
268481,186935425
-144797,057193756
-450073,759246826
-315827,627471924
202541,352966309
377215,842880249
-51328,2158889771
-412337,023563385
-136860,336120605
326182,961273193
241041,579315186
-169023,349720001
-415165,685340881
-208954,303604126
371298,223937988
531652,910903931
-5975,74977111816
-507613,503231049
-367538,077301025
8272,81446838379
-36295,4822998047
-318666,230537415
-517045,30651474
-422834,697662354
-9967,90284729004
99134,5280761719
-314714,765750885
-598134,664531708
-242081,528427124
286144,067901611
279814,114196777
-68190,5031280518
-346332,157653809
-290635,457839966
99660,09034729
163201,244003296
-325108,968055725
-656773,988826752
-243803,406921387
408068,345214844
444175,236984253
29267,3524093628
-297160,343631744
-195166,887451172
276248,536575317
390342,275741577
-68828,7718658447
-425230,098178864
-152374,342453003
311782,663253784
250041,530944824
-137795,058635712
-390655,538002014
-218156,591949463
339372,047225952
511135,291275024
14305,189907074
-413281,595638275
-164341,149597168
293529,688552856
225417,160232544
-146520,864257813
-383054,899501801
-232867,416519165
263562,208557129
400060,687835693
-64299,2289428711
-446150,144882202
-169857,642852783
331482,242584229
307575,683868408
-61160,2976226807
-319610,940139771
-175583,008865356
334589,791519165
461495,336669922
-57390,2220649719
-472683,077095032
-176177,687103271
315159,517776489
245410,860015869
-132705,315483093
-377587,170249939
-221985,272171021
309963,738952637
463106,981781006
-26993,365486145
-423605,237068176
-142063,99230957
337725,620285034
290278,960403442
-72374,3886299133
-355845,65750885
-301063,252914429
134803,404220581
280954,725585938
-143590,704406738
-470858,176319122
-177720,557220459
242365,416137695
160473,664642334
-152438,377685547
-388082,384342194
-360859,059051514
19198,4089813232
148291,216552734
-251996,519519806
-528866,20501709
-164688,641662598
318952,753219604
259037,239532471
-59023,4986953735
-280564,280727386
-190158,913223267
272562,144073486
423133,616516113
-52198,0348358154
-454489,965831757
-177966,717529297
303880,217971802
279277,958908081
-25091,8358078003
-256096,299922943
-177870,674102783
255554,437896729
333192,40826416
-213568,970821381
-604868,244022369
-223574,408981323
361706,041213989
341457,15322876
-31856,3219223022
-300593,960765839
-169096,808990479
374415,884002686
559718,180496216
92888,773727417
-282766,896701813
35951,7203826904
541620,100265503
463227,677886963
43442,1869163513
-262863,871864319
-177478,206695557
320283,150466919
504737,288986206
65630,7475090027
-299250,858551025
11195,0724334717
503730,255401611
421961,795303345
27218,9929695129
-228561,665164948
-88369,8797912598
446759,737426758
612661,26512146
98733,7570953369
-333105,898681641
-63109,8451385498
402151,622528076
328697,17414856
-24357,6580543518
-240310,517059326
-95468,0744018555
390221,513473511
497071,097290039
-43678,2819290161
-505533,107364655
-276857,946456909
181535,711105347
149719,196716309
-154014,277130127
-368880,823055267
-278389,32434082
171973,939605713
325440,036727905
-114201,827484131
-466947,444313049
-122988,173919678
443484,519515991
429287,206497192
34207,9990959167
-266738,518413544
-168264,76133728
333841,519668579
466192,489456177
-57374,6960716248
-449522,624588013
-97687,1901855469
438566,455734253
351583,713775635
-78525,4033164978
-344408,218151093
-145664,364501953
529638,703720093
870412,656997681
467121,147460938
33245,5935668945
298408,391937256
823767,955612183
748855,181900024
281362,762706757
-68175,791759491
-12970,6113739014
409162,961486816
411273,524887085
-260906,334270477
-774046,94959259
-462512,301483154
149616,256347656
202284,636032104
-130012,123485565
-388449,206695557
-291476,418746948
180617,015960693
334225,64894104
-113442,394100189
-479853,530574799
-162791,426467896
365942,255249023
305604,41998291
-114587,014636993
-383967,497776031
-189136,453445435
437491,61265564
642525,258010864
62864,8690719604
-497927,041648865
-303964,824234009
174699,271881104
120039,162460327
-258351,051025391
-528316,493934631
-411040,365615845
134815,590057373
366690,388458252
-58098,1104431152
-437869,632007599
-132378,898635864
380147,871566772
314376,277511597
-98953,5443344116
-428995,036022186
-402744,65776062
53652,873840332
246216,965301514
-165374,574466705
-507963,424797058
-158319,712112427
407260,843841553
388610,78225708
-4488,35011291504
-339317,062820435
-330704,750839233
135823,269454956
355488,351608276
-92729,2848930359
-536204,557304382
-275213,270431519
266097,505981445
284013,654083252
-47973,7411079407
-326114,400241852
-281834,30657959
175718,512130737
350622,977874756
-128682,271747589
-573066,438278198
-310147,537185669
212161,440246582
211882,945510864
-110583,265296936
-363072,573867798
-296037,498641968
156935,343460083
304421,741836548
-164139,135238647
-553667,690517426
-246403,712173462
296280,850128174
287861,599624634
-69725,7780761719
-341204,814655304
-247241,774353027
275883,047454834
499574,327026367
42520,6003646851
-419644,699142456
-188613,033676147
346041,061126709
356565,123733521
-10074,5937652588
-292837,635616302
-175141,094940186
362817,415466309
535459,310546875
23960,5691566467
-400797,100543976
-95745,9831390381
413309,803833008
328933,139801025
-77335,3751525879
-354025,540534973
-242651,906112671
301752,079727173
502341,662826538
-25832,9293365479
-511073,772636414
-187679,390457153
465213,681365967
498020,206542969
72617,2339096069
-276941,458625793
-201078,711364746
357910,965942383
623854,259277344
198888,711219788
-230171,373077393
-8452,98602294922
437599,178482056
360014,342468262
-17205,2522850037
-279668,391746521
-174291,995956421
339860,951019287
500709,816970825
-29873,3465194702
-466775,345012665
-129071,090270996
446086,030502319
410500,828659058
20672,61378479
-255890,032775879
-154434,721282959
370818,294769287
538974,415710449
-16043,2239379883
-503387,71100235
-208065,173629761
364707,945587158
356939,206466675
-14996,7490692139
-298118,682949066
-231347,137542725
238941,216369629
384909,071716309
-130489,276283264
-559790,81344223
-237008,942642212
322474,275909424
284620,037490845
-100699,508308411
-366472,589378357
-262689,604904175
235767,567520142
389200,854476929
-126837,6146698
-551062,558959961
-200474,09854126
403418,563262939
373592,950592041
-59309,3797302246
-364331,23274231
-228505,441513062
352539,562667847
547664,449157715
-18368,1840133667
-554278,176639557
-304210,314453125
285477,682266235
299504,073196411
-121028,961471558
-457945,950294495
-361959,274124146
229173,441864014
505571,796432495
21592,9917602539
-486818,871982574
-268648,243499756
262057,714080811
245671,917053223
-170129,968391418
-493332,229358673
-396915,697006226
145477,317230225
361012,275177002
-105352,009880066
-537963,097000122
-231958,454284668
398304,026412964
430066,328979492
-31256,8905792236
-415514,663261414
-315829,02923584
282072,970825195
500570,074386597
-75561,5943450928
-614093,751579285
-309794,072463989
353711,320144653
378443,925918579
-108263,936180115
-505425,021385193
-406102,052902222
215679,295227051
513151,397796631
41541,2969512939
-482388,969654083
-305391,589920044
193814,984237671
167418,762908936
-243594,524276733
-561951,742782593
-465362,122238159
89900,5325469971
314270,137130737
-178333,138389587
-639192,788021088
-346685,012908936
248636,90057373
260281,038406372
-155534,600700378
-501169,855484009
-458301,389846802
32946,3317260742
238442,259017944
-208978,954803467
-595932,728057861
-194440,330917358
591531,301834106
744340,57258606
259181,484443665
-178092,406135559
-30387,4813079834
619278,319473267
821482,270858765
210006,686714172
-407989,638759613
-230552,992126465
369498,323013306
416419,599197388
-47499,664352417
-427772,60603714
-280653,007980347
346964,564376831
521461,636779785
-107430,162162781
-639657,505104065
-278859,805953979
439212,764343262
459724,380203247
-77168,1469116211
-497871,51820755
-356568,428527832
331883,043441772
644116,449371338
125760,858879089
-438360,714538574
-272632,824523926
181487,909576416
83484,8766174316
-338415,37727356
-616078,885326385
-493083,180786133
81063,961517334
343711,142852783
-132536,936752319
-630614,175685883
-393148,279174805
153533,032791138
156949,864562988
-199379,020042419
-483227,906650543
-413315,689956665
109311,550827026
329590,476989746
-169967,864295959
-645197,455795288
-326478,627426147
343568,987533569
426885,148483276
40002,3762130737
-333434,312095642
-354714,838989258
79623,2724456787
242081,940917969
-247736,912086487
-667839,652603149
-287523,932189941
458997,339813232
588532,708480835
158844,943855286
-264703,535758972
-258347,961761475
251219,177337646
457212,426239014
-79317,104133606
-626674,046211243
-379420,274765015
281725,332000732
369207,102478027
-54583,4081726074
-413267,876976013
-297122,348861694
324357,531112671
596242,900009155
85033,0998458862
-442646,70633316
-218173,632354736
323816,788238525
280913,085281372
-170604,224128723
-489518,336650848
-343575,046768188
288938,118743896
561340,984344482
33846,4995803833
-521462,17873764
-303522,950363159
262248,591003418
248718,892227173
-177224,558937073
-501331,483299255
-422780,361785889
139155,561004639
420969,506240845
-52139,590423584
-598481,608329773
-442440,096801758
59850,5041351318
72493,5346832275
-264492,990264893
-528784,886520386
-444570,901229858
73952,2953033447
279878,239425659
-212634,088531494
-635877,542053223
-289126,256103516
295251,834320068
251759,080718994
-165774,361930847
-485557,064815521
-454770,466705322
35288,9998779297
281572,108261108
-149235,284004211
-585596,895767212
-300643,778610229
307332,917907715
358299,540359497
-21883,1064529419
-355188,728885651
-307232,467941284
226977,676452637
462925,317687988
-47699,9453125
-539988,313850403
-237415,006271362
390149,096679688
410196,12550354
-8084,03690338135
-351679,58190155
-304209,790649414
218717,194778442
446797,277603149
-62280,0305252075
-574391,139793396
-301757,122146606
332302,240020752
378314,042877197
-30389,9315185547
-367757,616920471
-315841,429473877
199451,229141235
441612,98550415
-28539,2241821289
-529281,632728577
-241437,231384277
530872,827850342
735193,146682739
283178,05721283
-163746,319488525
-56002,4760437012
582537,550460815
818257,633880615
218343,473693848
-444480,115768433
-344493,33883667
165326,300216675
146348,007080078
-294085,456237793
-606175,746330261
-423799,781661987
277192,220703125
601442,538879395
69609,63331604
-495966,838886261
-259700,946182251
304745,068389893
252741,860198975
-224691,387268066
-586614,190509796
-518803,910217285
47096,9543457031
355847,047332764
-37838,8470611572
-465414,787075043
-200524,301727295
369715,784835815
371906,344955444
-57644,7683258057
-419748,625312805
-369292,334640503
218150,469009399
565163,510620117
169142,824584961
-256316,285194397
63749,6450805664
656656,323379517
612212,421554565
161897,396453857
-183325,228042603
-175074,089157104
233966,731414795
294906,886810303
-375598,144287109
-962091,435779572
-652078,797454834
70397,5019073486
212058,686325073
-107266,488510132
-368046,629695892
-234769,8462677
326252,409362793
494078,05406189
-103825,763366699
-641706,030368805
-363181,472702026
233879,129547119
226176,375106812
-193520,057579041
-512956,784355164
-434139,458343506
106287,542022705
350487,465789795
-103151,039588928
-537554,106899261
-265870,207366943
232155,498291016
142815,809661865
-265643,567092896
-535765,781665802
-427449,353652954
121128,759933472
342808,99369812
-167770,84034729
-640614,872489929
-286009,619369507
444131,559829712
535889,576019287
76653,8771896362
-350571,957267761
-326957,105331421
236687,159866333
523608,043991089
53763,2863616943
-470213,380180359
-252954,457229614
350138,858688354
400187,716522217
-30573,5494613647
-410711,461395264
-350418,152999878
247932,945617676
566603,096786499
88429,8803482056
-478463,584350586
-327481,626876831
152734,088775635
117971,488464355
-249896,320167542
-531692,940681458
-471110,982849121
57154,9175567627
332933,803283691
-90974,7943496704
-497350,512134552
-100371,162567139
654123,620574951
740652,314361572
256868,828216553
-186864,342342377
-174354,594833374
374968,93421936
636425,216705322
125730,742782593
-415391,280731201
-201464,841125488
328299,953720093
296899,37387085
-88488,4701919556
-338460,9532547
-164771,913330078
466480,435821533
704550,941879272
130351,708587646
-413228,828147888
-88961,0542907715
652895,884307861
765073,718215942
304325,932243347
-125941,992004395
-83244,9090270996
503850,65977478
765338,081176758
210536,378921509
-390209,580020905
-166141,557403564
546094,339889526
696993,958969116
255828,740264893
-165771,343841553
-85377,0812683105
537629,629333496
795932,678192139
207626,543769836
-421417,884830475
-198165,151931763
508900,936859131
622785,527770996
141050,677185059
-275490,229492188
-118917,265167236
599695,020401001
903867,732727051
322606,772659302
-313584,234306335
-126811,433364868
505288,001708984
544568,90637207
35906,7133560181
-391183,108299255
-255494,32131958
483293,445068359
861980,285125732
351405,577522278
-239552,502918243
-26707,6432800293
570736,902297974
549109,107284546
44158,5465545654
-386851,91071701
-397365,012878418
107113,469436646
363571,113235474
-78922,1592330933
-528837,452152252
-223879,274505615
440373,811126709
512539,971405029
90842,5747451782
-303736,540603638
-325446,984741211
146012,457931519
355697,748519897
-159303,469589233
-658809,038455963
-344931,449035645
332153,922485352
390432,608215332
-19341,8086013794
-350764,428108215
-302967,45098877
204176,418365479
428159,935089111
-97108,879447937
-667605,481895447
-450649,915374756
198895,524459839
300946,596496582
-76926,2919082642
-384342,02501297
-239442,395996094
413302,243041992
680961,120727539
57645,5840301514
-630624,965900421
-469657,846908569
163295,727722168
247248,649017334
-166410,40222168
-534255,115192413
-466130,008117676
150652,605239868
492084,794708252
30577,0834350586
-494044,150005341
-250243,701919556
336266,786758423
314981,352920532
-153016,382759094
-536376,226566315
-511211,153717041
30315,5768585205
313825,369430542
-152352,922470093
-633035,320735931
-292496,754974365
458802,693725586
570929,865631104
87419,6178283691
-369339,126045227
-337262,23008728
267665,541488647
558582,463684082
2930,41645050049
-613926,567520142
-420518,704467773
157360,81187439
149810,26776123
-281953,911422729
-616464,261707306
-553570,396560669
29180,8867950439
374131,222503662
-65181,9064559937
-607150,620666504
-417409,504592896
121657,959243774
118143,713104248
-260874,625595093
-559226,103603363
-494481,550842285
68110,3622436523
363214,320404053
-116879,091674805
-626249,814300537
-353971,795028687
224698,843505859
208996,748794556
-176457,030471802
-480189,496391296
-445535,094650269
67909,1951751709
321488,602539063
-161275,625495911
-630145,263511658
-277100,108947754
412098,461883545
461882,428695679
46557,6730804443
-323920,072605133
-336084,692855835
139745,647460938
334483,514404297
-239285,155212402
-805128,558448792
-474094,577819824
330425,499740601
512793,430786133
94727,7210083008
-329758,16293335
-313116,653030396
246880,607757568
515091,818984985
5298,29583740234
-531174,250915527
-258576,66178894
440979,618377686
532549,200042725
49622,0372085571
-385998,452667236
-316729,361404419
328862,41645813
663401,899032593
140978,565567017
-490892,5651474
-368901,944976807
139651,953948975
113138,23109436
-304497,244499207
-604584,604118347
-478823,381851196
179503,327178955
580978,344680786
167722,390434265
-392080,829113007
-215420,702392578
459315,904418945
624029,941864014
191213,007904053
-251377,404315948
-191090,087936401
453627,819946289
769662,3465271
210252,35193634
-443570,657588959
-275440,094512939
362969,984298706
439782,336624146
-10142,833946228
-413939,762214661
-361380,10925293
226426,982528687
511093,479660034
-14694,4842453003
-612638,950298309
-392199,958251953
310394,584762573
437290,723464966
-8830,69221496582
-450782,791557312
-460804,344482422
112034,576568604
469251,718399048
31668,8988189697
-511010,049365997
-298147,035446167
303655,572036743
332910,804046631
-99352,5606613159
-463088,197536469
-414759,454788208
179397,180297852
534373,425186157
76924,0975265503
-496924,050907135
-272576,57649231
439091,795181274
590724,072555542
165079,734687805
-256233,701904297
-221518,351028442
361988,830886841
631892,363113403
69151,9627838135
-563660,483177185
-374913,118164063
299542,69203186
431119,891174316
19604,4359512329
-378145,959293365
-333724,204574585
257697,887832642
549759,262191772
19719,8297348022
-574132,180984497
-363365,365188599
261479,747741699
310180,70413208
-118002,069038391
-499771,700267792
-493517,002685547
30322,4632263184
305088,486541748
-177957,910583496
-696651,778869629
-398428,330734253
311772,520706177
398164,450134277
-52035,7031478882
-471747,173606873
-503456,429870605
10539,4752197266
346601,663238525
-62969,2604675293
-585025,554496765
-364568,184890747
276601,596939087
358373,476898193
-58480,3651351929
-419297,021446228
-337267,200363159
319867,602416992
719628,910903931
239282,69670105
-417874,043640137
-298857,59777832
310957,254211426
404725,635498047
2768,15320587158
-371025,926322937
-347789,880599976
193804,038391113
459933,932052612
-84341,3268127441
-712767,46654129
-479349,514541626
363443,142822266
664727,424575806
235378,602752686
-270813,789340973
-264316,345962524
351072,754974365
673102,584472656
144122,347640991
-493396,566581726
-353390,867126465
212931,029525757
214178,886184692
-258946,14415741
-645569,963626862
-593919,2993927
30864,1662139893
469758,028289795
133451,520385742
-352078,138221741
-135525,974472046
465339,963134766
482228,648742676
8292,36175537109
-378358,51001358
-319491,753387451
275739,140213013
602384,387588501
108327,388748169
-487835,989910126
-270961,518249512
405749,224609375
490966,269851685
58195,96118927
-305955,883735657
-230589,727737427
389372,070861816
721104,390274048
200413,642494202
-410099,466957092
-219297,294555664
348336,062469482
340860,620040894
-50050,6672363281
-347774,10276413
-339856,042297363
96879,6716156006
278861,919372559
-283038,795349121
-867698,026496887
-611530,317001343
77354,0989074707
204596,612792969
-121133,146759033
-409531,505516052
-373508,557022095
122778,335617065
375704,033279419
-92414,4368133545
-585167,329986572
-296368,756454468
358214,409866333
404146,105895996
-19769,0183105469
-369346,029174805
-319952,476425171
230626,210342407
507527,301971436
4006,39839172363
-559211,895675659
-314587,046646118
364394,210479736
452628,528396606
17748,8180770874
-395863,731109619
-450400,480911255
18118,9993896484
319219,486526489
-87371,9611434937
-571557,982532501
-327148,998580933
272818,33581543
285258,136291504
-137100,831245422
-460286,763050079
-395082,272018433
201651,692321777
597592,369369507
197628,804504395
-356961,252750397
-163698,256881714
509186,910629272
642476,612548828
211982,533660889
-196225,902893066
-142485,424453735
482482,337341309
838435,094711304
339329,870491028
-306546,823875427
-182855,519500732
392995,849304199
433246,27494812
18279,6571273804
-315243,073162079
-225561,982559204
384306,316253662
684875,905761719
137280,172889709
-481728,463993073
-264354,025970459
386786,230041504
448475,295623779
27370,8050079346
-336672,735748291
-322135,455947876
187886,329605103
450120,014251709
-42014,4693527222
-589037,098434448
-315894,091400146
422385,487976074
562570,366699219
126448,719764709
-309459,89573288
-341193,801940918
206060,802078247
552403,389663696
66470,4272232056
-570340,022144318
-407493,244094849
245977,045135498
353925,052734375
-52737,8956985474
-429838,569156647
-402082,089691162
179835,29196167
525056,74067688
67895,0923690796
-464717,194953918
-184418,837051392
505367,931167603
548718,214981079
55303,2294311523
-347196,127304077
-268076,986785889
379944,10723877
754607,084686279
307244,888000488
-241461,51260376
-5556,9227142334
748640,388687134
955945,478744507
478169,548248291
-23527,9678459167
46268,8268890381
722063,506362915
1023392,8507843
414904,122566223
-312687,449890137
-206040,421813965
483657,374389648
654256,294250488
189865,871688843
-289919,486896515
-286126,135559082
297721,863769531
603329,212310791
62595,6138916016
-598212,944248199
-406629,201843262
363845,404464722
552966,711074829
67495,3642578125
-420299,661815643
-390161,081985474
284104,968673706
720166,279251099
258286,906990051
-418371,798301697
-387208,555343628
48225,7080230713
-9886,81143188477
-407143,793136597
-691780,713195801
-627018,594970703
-53718,5201721191
296735,784988403
-178177,082397461
-792624,472480774
-588728,777786255
115635,078277588
263986,616287231
-120477,599876404
-523336,712932587
-600704,505508423
-151399,32875061
144011,516418457
-273548,277374268
-770440,718292236
-464638,873825073
338209,564544678
547052,66784668
104065,304199219
-372389,899608612
-390882,772750854
188386,898040771
525105,560028076
31377,4268722534
-569070,809143066
-359385,271209717
318047,884857178
411536,835189819
-53582,3824386597
-480083,761161804
-448464,006469727
137802,224853516
440078,894989014
-86375,2400360107
-692704,486270905
-456125,132110596
265233,129272461
373142,523223877
-103289,189498901
-533420,031772614
-500858,258468628
120719,481460571
527304,681365967
97372,7540435791
-526239,133369446
-406225,47819519
261196,59967041
437855,717025757
12673,4540328979
-421524,632534027
-362255,999206543
320508,272903442
741585,149856567
257320,574623108
-431746,870452881
-348641,602310181
312696,550292969
495071,284667969
63930,7012634277
-405243,047145844
-416953,424407959
191826,915481567
583893,700454712
120290,596450806
-504023,571266174
-366822,228622437
203409,178588867
230623,713256836
-188401,774139404
-533448,185016632
-493603,988494873
45288,0728607178
302045,415908813
-251755,557556152
-845337,631385803
-558760,7552948
218630,502243042
385546,413299561
-44056,9952392578
-471788,274894714
-475920,713363647
115418,557189941
506464,358291626
50658,3843383789
-583866,306663513
-447675,766433716
195993,149887085
324428,774093628
-80305,6119155884
-494641,447372437
-558628,138092041
-74531,6290893555
273973,508392334
-108386,923156738
-595996,848041534
-347088,243850708
275509,521896362
319087,565979004
-97790,6299057007
-448806,239337921
-431923,758514404
118925,07951355
463888,951721191
-21485,3584594727
-630842,764579773
-411055,611923218
298161,41178894
439244,555953979
35711,1098937988
-338135,477893829
-300249,430709839
289059,172088623
627353,715606689
91680,7347640991
-604809,469898224
-449555,438735962
357497,647598267
665842,841766357
254042,570381165
-248776,060523987
-276252,778289795
325938,854400635
704739,089920044
222905,923477173
-424768,76606369
-288343,406097412
359450,300308228
454455,666748047
-27713,9706192017
-457996,594394684
-389637,407806396
294219,537979126
724733,171920776
224329,294013977
-497296,142589569
-444054,17755127
107144,256118774
155062,180969238
-254789,220336914
-611220,333068848
-600674,563415527
-36308,377822876
379199,325927734
5289,54217529297
-543096,382709503
-369507,108306885
193039,897949219
202172,889328003
-194895,244987488
-526153,245670319
-569577,386917114
-115603,496704102
214248,346176147
-187581,231269836
-689739,127059937
-406922,904830933
262147,772506714
332781,891265869
-46370,3123779297
-383408,334213257
-441275,887649536
-503,12873840332
324851,642913818
-84033,7252578735
-626968,700260162
-396671,234481812
306904,414535522
470889,791748047
116066,062637329
-241246,902599335
-260470,264068604
270317,245849609
639812,566955566
193308,365837097
-411966,444805145
-231690,698745728
393757,605239868
462693,193527222
79120,4460830688
-257170,322086334
-283434,591445923
211162,624679565
564518,38381958
122399,136405945
-499477,050086975
-335018,151077271
356802,809967041
534533,100097656
181671,159065247
-186941,355251312
-250246,337432861
169481,512588501
411508,548965454
-73972,6623916626
-626102,725330353
-400648,351287842
193561,28553772
204705,248962402
-173048,320770264
-432754,073173523
-345705,542434692
258308,283325195
652769,015716553
188903,375732422
-440697,222206116
-257154,417785645
457129,79095459
632491,485443115
216868,494613647
-223912,293636322
-301907,049316406
179249,289520264
541917,74357605
153155,291168213
-398361,292682648
-221737,373199463
383341,920883179
425275,536834717
-7468,97501373291
-344344,3670578
-275838,595031738
347418,433792114
789361,822158813
375111,428840637
-264213,46251297
-173147,952056885
338982,583267212
320397,361999512
-72531,92237854
-349763,351078033
-287413,499008179
303072,025634766
742638,498016357
357711,116218567
-242460,414916992
-49449,1632843018
680591,492584229
837030,628448486
410785,578918457
-25128,2945137024
-116594,51852417
350595,938858032
675652,064178467
192652,176872253
-469663,215171814
-331866,249450684
383141,657043457
615138,828857422
274840,315322876
-125792,615276337
-236481,859268188
154847,887237549
399525,531097412
-121634,781257629
-761642,003482819
-529917,81300354
302197,158630371
567497,755477905
153879,548225403
-290116,649635315
-271979,316314697
395389,850250244
894939,418045044
484666,690505981
-196082,488372803
-115271,087478638
503609,577148438
576390,603515625
80476,9410247803
-355345,437778473
-304180,241928101
382645,887374878
873076,672943115
455476,463279724
-212059,178882599
-125433,840499878
464127,249343872
516139,467819214
59103,7500991821
-344672,205947876
-358119,817337036
204472,563430786
617354,492019653
203795,698310852
-397627,837913513
-243074,633377075
336381,769287109
364428,630569458
-26085,13230896
-350262,161720276
-380631,769577026
109781,608459473
483201,463760376
46984,6095809937
-591735,515281677
-391794,513397217
417622,828598022
692514,970672607
322146,933837891
-136107,727645874
-274203,035430908
157327,030288696
487524,591766357
60079,294670105
-490619,776626587
-196133,486053467
649107,973937988
879274,71723938
409327,177978516
-85252,1406364441
-121603,528411865
465908,844207764
868218,362319946
371972,733764648
-365308,268680573
-285495,569625854
460710,260421753
724470,972335815
297313,699249268
-169010,216674805
-122862,733566284
581442,030273438
1044961,24394226
541211,463195801
-218287,308609009
-198135,060256958
315558,149887085
291870,80632019
-161640,269592285
-492510,5744133
-434014,138137817
213658,900009155
731230,123046875
342884,802574158
-333159,744571686
-192483,260238647
551132,320297241
742581,228988647
305938,870849609
-158921,971473694
-252074,174789429
237412,778533936
598463,163085938
143593,92440033
-502971,687042236
-297963,134613037
574822,163574219
899416,644714355
460030,763999939
-74025,5157737732
-174764,955184937
374323,226669312
815173,369766235
383402,973968506
-334692,968711853
-261590,831771851
441594,005966187
625779,428573608
181163,866401672
-255459,300918579
-251972,348190308
373818,253677368
837159,726654053
381228,082710266
-342241,334728241
-286609,598052979
252146,54864502
243231,268814087
-170002,845184326
-455196,701095581
-404277,220336914
164644,825317383
563015,893798828
87744,4371948242
-590426,218769073
-391961,954360962
424367,999557495
673541,558288574
260856,195747375
-199113,214378357
-285833,774597168
226128,948074341
620158,78678894
172136,802650452
-502754,9008255
-365661,204238892
380766,114761353
603475,234741211
185534,699996948
-271981,006999969
-339458,505615234
195299,593994141
595743,488479614
136009,830627441
-564001,316947937
-458947,395446777
249419,152206421
437007,332946777
15111,8041915894
-425828,125858307
-493980,420974731
42907,2680511475
459798,152404785
-34144,9664001465
-802564,014175415
-723406,278945923
-44282,3361663818
94847,094543457
-310475,903793335
-685864,066894531
-701003,804092407
-132925,843597412
323645,693191528
-57749,1293716431
-648691,711669922
-431434,967727661
299086,581329346
418624,809951782
-74335,3789825439
-542226,252388
-579701,348709106
9083,12077331543
459472,25163269
25017,4960250854
-661665,304523468
-563732,828765869
50699,0278167725
114752,726226807
-312895,651679993
-675500,655704498
-662084,387420654
-54690,66796875
420749,941070557
31342,1993637085
-568603,609958649
-324644,507369995
469479,034835815
635297,983230591
141274,348258972
-364938,07194519
-460179,091384888
68937,1759490967
462123,348251343
-22177,7659072876
-723660,066818237
-561781,620376587
210823,551208496
416967,115478516
-9232,56594848633
-455541,124507904
-548394,187469482
-56196,9138336182
347496,716186523
-90844,8834838867
-772746,431926727
-587758,701049805
308276,283065796
655006,311401367
205152,67855835
-325550,501255035
-374238,310165405
232761,096618652
668083,628448486
182006,575912476
-565376,05664444
-500430,422271729
193334,798202515
362546,167312622
-113199,17616272
-545800,072025299
-451114,364425659
323149,438293457
891256,528091431
404582,611610413
-468877,722934723
-527122,715270996
158826,632278442
408022,96673584
-27804,3966598511
-511906,326889038
-521544,165863037
145359,294006348
682008,507278442
313491,528671265
-352093,245923996
-302798,696456909
245569,983596802
273516,591400146
-184623,434181213
-569824,620603561
-595641,975906372
-62295,6003417969
345038,652816772
-110850,831535339
-781805,265449524
-584974,220611572
197388,160095215
393404,742584229
-20226,9396743774
-438509,997320175
-529925,658187866
-59637,4300537109
330544,760498047
-125868,75957489
-856204,731960297
-723874,508636475
152275,282669067
532967,248855591
153511,828239441
-349507,004875183
-438631,21875
145665,522674561
615980,791656494
157448,039932251
-586963,84119606
-484165,113220215
281629,925003052
504609,916610718
35848,5613861084
-476431,266172409
-580074,769317627
-20489,7617492676
507701,744888306
178479,927345276
-493837,90388298
-419259,417678833
327110,578140259
598774,072540283
163110,737762451
-346328,411161423
-404003,546630859
216222,920410156
703726,600891113
249195,116706848
-484984,249637604
-363393,144866943
421668,310043335
650767,383956909
161984,124885559
-357537,249332428
-403067,487213135
236314,301742554
754079,120346069
318180,550498962
-455471,661455154
-435204,178604126
268010,350616455
509362,842147827
89836,4880752563
-379405,200187683
-423003,821960449
163066,871704102
593413,12071228
106628,324554443
-621671,173225403
-477995,694625854
321322,97718811
559427,360748291
90485,4750213623
-408641,976839066
-459562,862182617
146649,213790894
633036,335723877
192375,099533081
-564895,143741608
-509522,989654541
278787,618667603
607631,109420776
179151,163574219
-351685,152853012
-413402,309158325
222713,306274414
734941,089309692
273194,871276855
-547686,512897491
-548711,617538452
222757,400482178
550300,136260986
109262,225540161
-433110,18362236
-457329,072967529
277553,989089966
895912,033782959
522738,529327393
-220411,035507202
-199925,72026062
443175,882064819
571990,119903564
68814,0106506348
-449145,062322617
-574927,019760132
-45174,342590332
457932,80708313
80581,4022674561
-625967,963407516
-507594,038909912
359750,950592041
753206,039611816
347620,835647583
-208958,833702087
-339675,755172729
191488,165908813
580644,763122559
28936,4489746094
-795216,365926743
-730125,072250366
149805,034683228
589431,296386719
182750,609466553
-395851,975101471
-492589,147689819
148777,587280273
718511,260559082
363784,6509552
-350231,35099411
-341895,222839355
278930,672561646
411789,769393921
-82291,9554748535
-554985,33776474
-552050,93421936
117782,052825928
662303,55241394
233484,21282959
-572917,413099289
-586777,162597656
131096,694122314
409352,915496826
-2522,74978637695
-485400,144758224
-550771,334762573
18982,4288482666
463163,470031738
-11801,5735015869
-773391,970554352
-678021,096115112
91606,2462310791
316712,486938477
-136589,130813599
-610335,531061172
-657518,009094238
562,953338623047
655427,808547974
417339,158340454
-198597,407230377
-94397,9556732178
606059,515197754
782884,80670166
300193,942993164
-225078,387405396
-394014,353134155
29752,8192749023
380089,111221313
-137173,135620117
-925972,449525833
-834155,816818237
9633,3505859375
381515,009384155
42686,525100708
-385745,048753738
-429021,571777344
166971,205322266
657328,234298706
209628,148330688
-552855,028551102
-492038,284240723
214529,804473877
408039,264160156
-21751,5636901855
-462400,787288666
-530351,840103149
-2327,84289550781
419096,244064331
-62607,3222045898
-821062,456874847
-698498,506713867
147011,020904541
468526,599060059
40123,6486206055
-463870,673557281
-518768,133331299
121163,533874512
655074,434494019
206328,610717773
-594341,424394608
-563642,11769104
149568,267303467
349688,193481445
-116744,037277222
-604155,549749374
