0
0
0
0
0
0
0
0
0
0
0
0
0
0
0
0
0
0
0
0
0
0
0
0
0
0
0
0
0
0
0
0
0
0
0
0
0
0
0
0
0
0
0
0
0
0
0
0
0
0
0
0
0
0
0
0
0
0
0
0
0
0
0
0
0
0
0
0
0
0
0
0
0
0
0
0
0
0
0
0
0
0
0
0
0
0
0
0
0
0
0
0
0
0
0
0
0
0
0
0
0
0
0
0
0
0
0
0
0
0
0
0
0
0
0
0
0
0
0
0
0
0
0
0
0
0
0
0
0
0
0
0
0
0
0
0
0
0
0
0
0
0
0
0
0
0
0
0
0
0
0
0
0
0
0
0
0
0
0
0
0
0
0
0
0
0
0
0
0
0
0
0
0
0
0
0
0
0
0
0
0
0
0
0
0
0
0
0
0
0
0
0
0
0
0
0
0
0
0
0
0
0
0
0
0
0
0
0
0
0
0
0
0
0
0
0
0
0
0
0
0
0
0
0
0
0
0
0
0
0
0
0
0
0
0
0
0
0
0
0
0
0
0
0
0
0
0
0
0
0
0
0
0
0
0
0
0
0
0
0
0
0
0
0
0
0
0
0
0
0
0
0
0
0
0
0
0
0
0
0
0
0
0
0
0
0
0
0
0
0
0
0
0
0
0
0
0
0
0
0
0
0
0
0
0
0
0
0
0
0
0
0
0
0
0
0
0
0
0
0
0
0
0
0
0
0
0
0
0
0
0
0
0
0
0
0
0
0
0
0
0
0
0
0
0
0
0
0
0
0
0
0
0
0
0
0
0
0
0
0
0
0
0
0
0
0
0
0
0
0
0
0
0
0
0
0
0
0
0
0
0
0
0
0
0
0
0
0
0
0
0
0
0
0
0
0
0
0
0
0
0
0
0
0
0
0
0
0
0
0
0
0
0
0
0
0
0
0
0
0
0
0
0
0
0
0
0
0
0
0
0
0
0
0
0
0
0
0
0
0
0
0
0
0
0
0
0
0
0
0
0
0
0
0
0
0
0
0
0
0
0
0
0
0
0
0
0
0
0
0
0
0
0
0
0
0
0
0
0
0
0
0
0
0
0
0
0
0
0
0
0
0
0
0
0
0
0
0
0
0
0
0
0
0
0
0
0
0
0
0
0
0
0
0
0
0
0
0
0
0
0
0
0
0
0
0
0
0
0
0
0
0
0
0
0
0
0
0
0
0
0
0
0
0
0
0
0
0
0
0
0
0
0
0
0
0
0
0
0
0
0
0
0
0
0
0
0
0
0
0
0
0
0
0
0
0
0
0
0
0
0
0
0
0
0
0
0
0
0
0
0
0
0
0
0
0
0
0
0
0
0
0
0
0
0
0
0
0
0
0
0
0
0
0
0
0
0
0
0
0
0
0
0
0
0
0
0
0
0
0
0
0
0
0
0
0
0
0
0
0
0
0
0
0
0
0
0
0
0
0
0
0
0
0
0
0
0
0
0
0
0
0
0
0
0
0
0
0
0
0
0
0
0
0
0
0
0
0
0
0
0
0
0
0
0
0
0
0
0
0
0
0
0
0
0
0
0
0
0
0
0
0
0
0
0
0
0
0
0
0
0
0
0
0
0
0
0
0
0
0
0
0
0
0
0
0
0
0
0
0
0
0
0
0
0
0
0
0
0
0
0
0
0
0
0
0
0
0
0
0
0
0
0
0
0
0
0
0
0
0
0
0
0
0
0
0
0
0
0
0
0
0
0
0
0
0
0
0
0
0
0
0
0
0
0
0
0
0
0
0
0
0
0
0
0
0
0
0
0
0
0
0
0
0
0
0
0
0
0
0
0
0
0
0
0
0
0
0
0
0
0
0
0
0
0
0
0
0
0
0
0
0
0
0
0
0
0
0
0
0
0
0
0
0
0
0
0
0
0
0
0
0
0
0
0
0
0
0
0
0
0
0
0
0
0
0
0
0
0
0
0
0
0
0
0
0
0
0
0
0
0
0
0
0
0
0
0
0
0
0
0
0
0
0
0
0
0
0
0
0
0
0
0
0
0
0
0
0
0
0
0
0
0
0
0
0
0
0
0
0
0
0
0
0
0
0
0
0
0
0
0
0
0
0
0
0
0
0
0
0
0
0
0
0
0
0
0
0
0
0
0
0
0
0
0
0
0
0
0
0
0
0
0
0
0
0
0
0
0
0
0
0
0
0
0
0
0
0
0
0
0
0
0
0
0
0
0
0
0
0
0
0
0
0
0
0
0
0
0
0
0
0
0
0
0
0
0
0
0
0
0
0
0
0
0
0
0
0
0
0
0
0
0
0
0
0
0
0
0
0
0
0
0
0
0
0
0
0
0
0
0
0
0
0
0
0
0
0
0
0
0
0
0
0
0
0
0
0
0
0
0
0
0
0
0
0
0
0
0
0
0
0
0
0
0
0
0
0
0
0
0
0
0
0
0
0
0
0
0
0
0
0
0
0
0
0
0
0
0
0
0
0
0
0
0
0
0
0
0
0
0
0
0
0
0
0
0
0
0
0
0
0
0
0
0
0
0
0
0
0
0
0
0
0
0
0
0
0
0
0
0
0
0
0
0
0
0
0
0
0
0
0
0
0
0
0
0
0
0
0
0
0
0
0
0
0
0
0
0
0
0
0
0
0
0
0
0
0
0
0
0
0
0
0
0
0
0
0
0
0
0
0
0
0
0
0
0
0
0
0
0
0
0
0
0
0
0
0
0
0
0
0
0
0
0
0
0
0
0
0
0
0
0
0
0
0
0
0
0
0
0
0
0
0
0
0
0
0
0
0
0
0
0
0
0
0
0
0
0
0
0
0
0
0
0
0
0
0
0
0
0
0
0
0
0
0
0
0
0
0
0
0
0
0
0
0
0
0
0
0
0
0
0
0
0
0
0
0
0
0
0
0
0
0
0
0
0
0
0
0
0
0
0
0
0
0
0
0
0
0
0
0
0
0
0
0
0
0
0
0
0
0
0
0
0
0
0
0
0
0
0
0
0
0
0
0
0
0
0
0
0
0
0
0
0
0
0
0
0
0
0
0
0
0
0
0
0
0
0
0
0
0
0
0
0
0
0
0
0
0
0
0
0
0
0
0
0
0
0
0
0
0
0
0
0
0
0
0
0
0
0
0
0
0
0
0
0
0
0
0
0
0
0
0
0
0
0
0
0
0
0
0
0
0
0
0
0
0
0
0
0
0
0
0
0
0
0
0
0
0
0
0
0
0
0
0
0
0
0
0
0
0
0
0
0
0
0
0
0
0
0
0
0
0
0
0
0
0
0
0
0
0
0
0
0
0
0
0
0
0
0
0
0
0
0
0
0
0
0
0
0
0
0
0
0
0
0
0
0
0
0
0
0
0
0
0
0
0
0
0
-112286,144976199
-90522,3882575035
-81373,8351043463
-77019,0165060759
-76716,3133941889
-76787,3532297611
-64137,4908624291
-38050,6959124207
-17217,0664330721
-20213,8764665127
-37281,9127886891
-51743,843574509
-57958,1561524868
-52792,5399029255
-41589,799002409
-31897,1902316213
-26553,9765393436
-30286,4143431187
-37256,546653986
-31307,0233609676
-13941,3179367185
-1733,78903141618
-2894,19507700205
-8933,71555304527
-10676,0120561123
-10167,4336593747
-10531,6852044612
-13010,9097873569
-21227,9022552967
-36644,8502737284
-48090,0751414895
-42661,1666071564
-28165,1726055145
-16585,5276225805
-9171,09970784187
-6197,1383895874
-4771,83143953979
452,271002054214
7228,55997216702
6400,09331417084
2038,30054485798
2036,81054995209
499,289594590664
-6598,54856580496
-18184,6000063419
-23274,9840886593
-11443,2299456149
2512,19328650832
5545,51383292675
6786,88538521528
20195,8185117841
41263,335825026
48690,9013406336
42481,9066420794
28135,4532396793
-429,033495336771
-28759,6165739
-35580,3060834166
-17136,6510991305
8616,21897923946
23832,4768199623
32419,5326814055
32594,8310496658
24539,278098016
22081,2365556657
25970,999219507
28125,0166638196
25211,9305710793
22461,1507776156
30590,2370610684
42414,3983968198
35046,1338928044
11844,2819613516
-40,4338334426284
8664,66665263474
27895,9040963054
45102,3744468689
49400,911950171
38488,9492175728
19505,7290636599
1975,81041660905
-8306,98761960864
-6848,5343599841
5666,4729526937
17014,63049227
26132,8548136353
41059,6969004571
51561,3385359421
40182,4433885217
15876,3488278985
5496,25190785527
8273,87525993586
11993,2561651468
20536,8943455219
31219,4280657768
32497,9284447432
23135,5668763146
15799,8268387318
19307,1188250184
26368,7058948874
27245,9723175168
25719,9839932397
30033,2505852282
32929,0404170752
23275,7934151292
9398,53352320194
6107,79572263919
17559,7657743096
34964,1344122887
41041,5654505491
26502,0684489012
2957,53658616543
-7831,5441339612
408,311194956303
14463,673053205
16248,2497551143
586,750476412475
-19577,0319000483
-28621,2669610977
-21358,0340462327
-3711,86889263988
12370,1402073205
16544,9005097747
9434,24317973852
332,365368843079
-4936,53349582851
-7485,89345291257
-9135,31592392921
-12815,0232519507
-19027,9590283334
-15206,8975400068
1662,74383163452
13935,9298917055
19447,2154073119
25981,6769007742
21795,0848934799
4680,2520622611
-8825,19259399176
-13437,9893023372
-14278,6973045766
-18001,4579701275
-23547,5775440335
-25145,8338193893
-23861,8254501224
-20302,8542228639
-14535,8817831725
-8663,67471271753
-665,895826280117
6880,58724701405
1688,40072953701
-13154,7051118575
-22038,6915970445
-25946,9395070076
-33615,9105553031
-38915,6914668083
-31878,689832449
-20071,9279057831
-14328,1464241743
-14109,1851278543
-12787,6280274391
-6630,65171325207
-6634,46584436297
-20689,6068923473
-34109,9215553403
-39745,8904888034
-43271,6579061747
-36360,3913106471
-18761,8773167729
-5789,99412888288
-121,127141594887
1298,94973707199
-3768,59261670709
-12496,8785251677
-18833,3338721395
-20124,2171202898
-16828,8695359826
-11973,4534810185
-5452,52123113722
3196,05197757483
9633,70942306519
14623,1854336262
23822,2856419683
34478,9023777395
39009,0143462569
36367,934777081
34788,3745076656
38987,8208233714
40689,6187714189
41028,5564975739
48892,3291292191
62863,6178377867
78690,7918646038
83605,4127489924
73426,3917951696
68996,4900880009
73098,9389970005
63785,0314491391
39280,8228686526
21194,0664234608
17613,5999238342
16124,9782757759
8114,14680254832
2569,94531453401
13714,2263563722
33455,1313182786
38045,5036046654
19830,6314191371
-5577,37590542436
-23503,4499703348
-37519,2536032461
-53140,7123432755
-60755,482673049
-46057,5423095226
-20042,7473928034
-10684,535243243
-19017,7251768112
-26401,1251339316
-23690,5653880239
-11855,9267443419
-400,80494004488
734,791532844305
-7261,51938223839
-19850,3413053155
-35103,9633859992
-44240,167712152
-38186,6432586908
-24556,0382010937
-16050,841267705
-13053,5665931702
-13371,1711384952
-19225,2434155941
-33157,2895281315
-53156,5993232131
-66653,943780005
-53578,5336562097
-9940,60189929605
35973,1885222793
64774,1787431836
90555,651879847
129230,981513411
188501,773893878
270351,326214314
357575,262980044
420902,636060476
447706,17764366
449054,223044336
436597,620322406
403053,429053247
340485,159052432
265061,823702693
189933,486397326
98901,657895565
-16389,9928560853
-130498,25166738
-212662,449596524
-259153,317087121
-288849,298313975
-307397,761382788
-304036,783252373
-274163,120296255
-226498,555710584
-185081,077106714
-160864,313394681
-140339,006752245
-120365,367906734
-108134,207577109
-106034,611168861
-110460,982603773
-107053,722329319
-93722,0182195008
-79702,617544651
-60441,1124932319
-47573,6048217863
-55852,8974797726
-63421,475892961
-57174,8872231841
-53449,8162645738
-56732,6392666698
-57901,3866345882
-56902,5599493384
-56391,7892899215
-60570,5064604266
-72699,5614038706
-78202,1935067177
-66338,3715719283
-55740,2018701285
-58221,2629523575
-59840,7905171514
-54145,4943067431
-46546,4514474273
-39687,9380944967
-39103,499621667
-52330,5127240419
-66665,1089322567
-64133,6156073809
-47354,8429251201
-30559,2136385739
-28424,1241734028
-40570,5026877373
-55297,5659767389
-65081,6218016595
-70621,0560268313
-68589,1261264384
-56740,9145213291
-48570,6022443473
-45462,5246492326
-40441,9469805211
-37853,3399714082
-36519,8345244527
-33516,4747496843
-34810,6820349991
-42759,0753083974
-50186,7544806004
-50760,15758425
-49037,5600014329
-49728,400708437
-48883,538328886
-49957,0111493468
-51557,6968073249
-42776,8225376606
-33689,8718415499
-37656,0824258775
-44214,7021047473
-41921,0439323783
-30236,587985158
-7018,76715475321
13167,5519570634
6943,80707120895
-16008,6913808584
-30490,8984597921
-31461,8420058489
-24873,9664648147
-11300,3778572083
5257,10890746117
16167,2954512835
18820,9297679663
17967,8858423159
13128,6266919374
2501,33152210712
-1361,59101510048
13831,8654211164
39810,9670181796
44887,5269089937
18588,6750326157
-124,265450835228
14375,6920137405
40487,5338956341
57586,597789824
64113,7925492525
58255,3684900999
53027,0683144331
70536,2568907496
95805,6926309466
100346,956693649
85885,7421108484
67774,2362964749
68039,430094555
96141,7490676641
126373,293100357
139912,208211899
148869,688903213
158385,048585996
161061,134597659
159225,169479728
155839,8444134
149311,893718481
140395,505634429
135739,219094217
143064,168248117
151917,992282808
148234,280666143
140254,85705857
139708,671927333
145928,389728487
149533,917973518
142446,011682197
126731,654304639
111006,241556883
103167,384914577
98438,7918219566
86647,3134243712
78365,6463835239
86934,3683047295
100091,181252897
95716,8260720521
66115,8575487584
33389,8440464437
19862,7734215856
9988,01570177078
-8930,57948435843
-24876,613695316
-40951,9552332759
-62355,948227942
-77440,8964449763
-86164,0646737516
-90623,9884671867
-87244,5031913221
-85576,7896752954
-93347,5559598804
-109510,382987082
-130730,838117786
-152252,467353612
-168000,276645601
-170862,932352662
-164848,11632961
-156302,967918009
-150234,372066289
-160224,97547996
-182084,656945527
-195672,959067583
-193246,042323396
-184082,979774296
-184349,91213268
-196582,675500393
-214130,568325698
-227879,292478949
-222999,047430616
-201710,136349499
-183540,452749908
-175519,997563779
-172161,090184122
-169450,655017927
-170767,017755806
-175122,390571475
-175698,510686696
-175689,102038741
-177939,760384098
-175210,228052229
-166150,254015267
-163940,547796547
-169627,399923921
-166681,622144014
-158036,442288935
-157195,382806718
-154832,84411484
-142054,709707797
-132297,814511508
-134411,416560113
-138545,404481947
-136291,872407198
-134839,402289569
-139956,595185235
-139487,260265797
-128630,832593501
-118707,641501844
-114500,994163573
-118770,627452344
-128088,067823097
-127255,851570368
-109127,726584136
-86075,375017941
-78843,3283646852
-85837,6694428921
-93640,1010740995
-104339,15548718
-114702,676671922
-110912,298615336
-94313,530764848
-86442,1623384953
-98437,780372262
-105393,859567672
-92168,0233293623
-76152,3973851502
-63959,3948860765
-56723,2463827729
-56764,300334394
-61306,912108263
-69733,4613812268
-69667,3948093057
-61052,9005762339
-63291,774649933
-76446,2161299735
-83633,0825042427
-71712,1107261777
-40682,7748181224
-12372,1730004251
-9109,17131364346
-19211,4857569337
-26673,6063293815
-36389,2461043
-45637,4832034409
-42078,7014180422
-28114,8292890787
-21168,588222146
-31564,346709609
-50235,3185744584
-60775,4300209582
-58702,2714150548
-48081,8652078509
-29795,125428021
-6862,30864927173
9082,54636760056
6736,85193473101
-11645,3184782267
-27624,215656817
-18216,1447695196
18686,0259851515
56014,2566143274
67565,3088866472
59855,1886531711
51923,7715993971
43408,1717644185
36763,4237369299
44894,4814370871
59681,6076615453
62660,5766841024
54072,2078514695
40967,4293428659
29285,0634459257
32331,8665512502
55487,7543849051
84493,836975351
105809,628166765
115253,932828397
110145,04266119
92150,4429580607
71273,8443012834
60899,3831783533
59921,3403640985
58773,8270579278
58729,634546306
59063,4515385926
53364,5389546156
49345,1611505747
60751,0752352774
88474,676144002
117320,499740511
126045,153922796
113645,618745625
98476,355964601
88418,2694031149
74415,5978627205
57020,1135958433
49641,4846069813
55033,1035197377
61020,3741141558
58173,5314433277
50916,383353889
50344,3167800903
64682,2197985649
84379,5829751194
92897,0792297814
87652,7085653841
78103,5914646387
74712,4840160608
74181,5829221606
71086,6009666398
71492,7220106423
81232,9486031532
95848,3715647459
109198,050236046
114774,78674984
100521,796751529
79653,3623965979
76596,441911757
86082,7799762487
102397,481130511
115996,621464461
108915,160728216
92214,0690737963
81987,3871408105
79454,1774418056
83523,5808729678
89768,1578469872
93918,1090759635
95326,4095776081
98385,3892549872
104135,186772823
105846,398449659
103788,200528622
104732,688897789
109358,473093092
111653,478392661
109456,218924463
107051,918846905
105256,008740664
105164,285974398
102307,766045004
91105,4633480906
83662,3091304898
82109,9784712195
73313,0969122201
62146,107483387
63191,8070456386
71993,777988255
75782,3933989406
80409,506354825
85965,0676015913
77031,8450375199
67171,4661380649
83344,5003013015
120940,88542515
152634,109009415
156005,55981189
135074,347700208
111219,17509866
96912,0518572032
86913,4715867043
77757,8968960047
79450,7836140394
85138,1719240844
83402,6014894843
82205,1844068766
90762,2134194374
107330,441198021
114253,244688392
108795,930927992
107961,51165098
113670,038875937
121303,253360048
127237,934435159
127889,032223046
126492,566843033
123644,769130051
116444,393407851
108105,233117461
109067,704271495
113658,516988397
105075,14773798
92386,2187848389
85173,7743432522
74661,0864559412
62283,2775775194
55597,0153838992
53429,6070287526
53935,7597931325
57893,2749271989
61756,6715365648
57412,0203229189
44700,5194958448
30079,082201466
13767,6119433045
-1454,51517724991
-9911,00958502293
-9924,27174180746
-4741,50000799075
-1790,67879039049
-2674,00356197357
-6084,36626827717
-11743,3093397617
-17051,5984890684
-18383,8478219509
-13166,9008862972
-4619,63423979282
-2720,636526227
-10992,5205673575
-16876,8315988183
-10387,9860980511
-3177,89184701443
-8097,89708578587
-19584,6006756425
-21207,7188884616
-11386,7046772242
-15051,5055464506
-35473,0833613873
-43395,8829167485
-32603,6103648245
-24918,7136962414
-25411,2808554173
-16172,7355097532
12968,6364981532
55479,7164178789
93328,2909469008
119851,186102748
154685,184387326
214350,429468513
296033,15314281
382756,701046884
452925,625930309
489157,858209014
482790,727974355
444916,361853004
394809,785155624
332470,560281515
250870,275802314
148405,127431631
24738,9034324791
-103113,51684466
-212066,843178272
-288249,515179843
-317199,645429235
-303973,19753316
-280801,313875914
-259556,810209513
-228417,636403441
-187357,224471658
-146902,264012635
-116343,887221515
-93302,9168326259
-73549,0266536474
-64076,1095581986
-61420,6371935606
-48954,6490141153
-26161,4339650869
-10926,1076096892
-15370,1325786561
-32657,0477178097
-43945,488592267
-41907,2975128889
-36282,7344315648
-33635,1701495908
-35468,505268693
-44180,842279911
-55708,0654755831
-59971,0002639294
-50538,3125013188
-27968,2851458192
-220,598621845245
16959,1434608698
15763,1330184937
4979,08554582298
-7656,01170608401
-16703,9959213734
-19508,0340646505
-21056,0961994529
-20521,135941118
-12771,8634878397
146,581293702126
3929,15285599232
-8213,32737964392
-16648,7851287723
-6857,22521972656
9489,86900109053
16116,3303779364
11057,7287476063
4207,44626113772
2346,11255311966
4216,8282520175
3923,95716613531
-1745,87021493912
-2607,0360879004
9296,45447013527
23911,1727854609
25944,1947667003
10739,2406096458
-9932,39347410202
-21028,4942142516
-15113,1541965604
5472,17878323793
22303,2335079908
17406,4126895368
6444,20264537074
15416,0823933184
32961,8867871165
37787,2370036244
33522,5772213638
29752,1369328611
27583,2446320653
25014,1671077609
23476,4039357901
27945,8697328568
32648,980793342
28796,0139280111
23509,7083634436
19276,8204088509
16103,073235482
23133,0786789805
34337,8876411542
37060,6536205709
35506,4595349133
39001,1525435448
42681,39877294
38608,2187246813
36527,6109569371
41684,8113078773
45325,619623661
50836,8473711163
59258,7301433561
60265,4283762425
57354,989995122
61546,7895635962
69177,6048804969
72246,7526966594
77178,429925397
90420,3565395772
101953,214188993
104506,139943734
107735,767089974
117692,217898548
125991,045048177
124619,449223012
117163,854215205
114653,491964223
126084,330848396
144090,510139883
148909,796492696
142894,812460884
140838,384431042
143211,919272214
148124,493385196
152538,465567112
148616,883909687
138606,431745831
137333,113780886
145257,452112764
151710,563421071
157196,138899658
155740,458420068
140640,785626262
130328,160416216
141268,215370953
160758,986276455
164807,123869531
148785,735394642
126600,563285679
101536,094786987
74487,3312537819
58075,2792685181
53704,186786294
47911,8452040851
33330,2936954573
14928,709899649
-4703,40912340581
-24439,3864528835
-35265,72200495
-33620,8528301604
-30929,0662667751
-43308,5108770132
-73000,6294134855
-108563,90331313
-134428,653053448
-140598,814125061
-138693,855688125
-150408,819352955
-173256,947640628
-184051,856356546
-181665,684275985
-184066,701305032
-190177,5778234
-189832,527267009
-185051,698498726
-181755,344576657
-186420,553653359
-202476,537219763
-218146,78211233
-218673,239359409
-208025,235172421
-200490,666780084
-199388,695242465
-204358,437072724
-216890,316957355
-224128,951414973
-214482,018184185
-198729,458781362
-192027,38366735
-196154,085529917
-203903,740912288
-208158,736352384
-207587,363935322
-203268,967214197
-195947,267335057
-187311,549412847
-178590,209982216
-173582,571792185
-176471,412532806
-182738,762473673
-181487,634895355
-175778,76630646
-176518,883561671
-176200,860438362
-169840,902251005
-171325,202993631
-178739,336144388
-173634,058308303
-154142,552060455
-137874,657094106
-140800,095659554
-152331,996216118
-154443,29451561
-153077,005277961
-152504,628517479
-142953,854040623
-131890,545022905
-137442,554175854
-154087,366877288
-161031,012456037
-150446,987460673
-132092,762376606
-122984,581682324
-125865,641706288
-131024,700129896
-138410,428818226
-149004,879962444
-156089,444759429
-155566,579577148
-146772,663304247
-130427,086859345
-116869,710623264
-116518,491549373
-122504,603193462
-121598,784984071
-117705,141611397
-124351,534991503
-130372,165719867
-119301,381765604
-106240,997297928
-110021,708896369
-123539,746748328
-133289,457243919
-135376,587436527
-123087,388295466
-97494,323266685
-79661,1272186637
-80906,4465697408
-87180,3096235394
-91665,3728029523
-99950,9650400281
-102190,530541003
-90321,6882620156
-77872,2863739133
-79050,674978599
-90855,0452727973
-100610,434428155
-103029,328368247
-96868,5860606134
-84846,658834368
-78462,640152812
-78402,5893614888
-80008,3008142114
-84104,6157970615
-85246,1394819617
-80527,436707437
-72225,940987289
-62199,6669594646
-57215,8422201984
-62146,7886178195
-72813,820289135
-80383,8210617602
-80773,8051898777
-75117,2980814576
-62039,1403103769
-43456,7836149931
-31078,6773012578
-30532,5188292116
-36870,021512121
-50834,1355372965
-64572,0030241311
-57283,6822410524
-37533,9431417063
-29042,1628399491
-27278,1797265112
-29955,6380844414
-41589,7968482077
-45130,9527069032
-36179,031582132
-33181,0000886917
-33736,4183649719
-23960,1553221643
-9070,03830845654
-2209,01746091247
-9817,98391309381
-26425,6626773179
-40832,2597914636
-42086,3294291049
-24812,7515744157
-4538,32376375794
1782,31998276711
-2039,78892326355
-9036,48632767797
-20930,8795724064
-36502,9633654281
-40752,4414942265
-25369,6389742494
-1893,45247483253
11637,0597354472
7736,47770616971
-2397,98725101352
-10511,6589697599
-14572,7868855
-7473,04935494065
4497,1285475716
4664,31172198057
-6605,11570566893
-12885,0193964839
-4617,01793676615
2921,25578168035
-6208,15332897007
-7939,9626429677
17475,4071443081
38707,7500693202
35173,7253903151
23062,8358548284
17296,636654377
18726,3367350101
18074,0871258378
19811,3540348709
33386,2806951054
44150,3503393829
37540,4367181063
20549,8417007327
7993,60649120808
8606,66454015672
15975,3235936463
22593,5557463765
29827,0018662214
35503,572691381
36887,1474157721
36477,6933542788
36169,1059426069
35113,2624118924
37071,127644062
44969,6660209298
50382,9923618436
45470,4185602665
35855,1629135609
27000,6011870503
16872,3467165232
13159,7648230866
23727,1871785223
45048,1601267457
73763,3672080636
103069,47686249
122833,504728433
125502,949190408
114865,204682559
108213,772574306
114484,404660732
127266,333309898
138779,183439344
143567,270806491
138695,864408016
127759,805391103
117474,169695765
113212,156376094
114553,416631073
119592,932273507
129523,452531904
139316,885715939
141922,478482276
138747,799156308
135098,527680099
136403,90438953
144210,462859944
154950,240332872
163298,259938329
169534,273474008
178284,493838161
184928,159739807
182359,944595784
170555,328126907
154991,017401636
142344,633075267
137178,847821232
146919,613675326
167405,109447658
172886,788192511
153648,031051323
130401,067188248
118244,645393401
113175,283597171
107652,072997183
98988,5563481301
90679,414608255
82157,102237612
69638,6853365898
58841,6097753048
54363,6522573233
53498,7687607408
55206,4936648905
65345,6218828559
84972,2404686511
98667,7403283194
96059,3563878536
87036,0483385921
83290,7677319646
79249,2630158067
61005,2498768792
41226,2563506961
44244,5725210905
56203,5227074176
53382,5981633812
42838,864393115
37545,2410539389
37441,285972029
43932,1105486155
58430,259022586
73478,9680891633
87690,2596093714
98901,836932689
98783,4849399775
93006,2370845247
94921,7378938347
111716,311781019
139261,658051878
168563,905645572
201013,288562998
244134,196835071
293222,831183344
338066,720588475
387115,990623593
449741,46596968
508984,604022384
538541,681581989
533975,657659061
506393,814077675
460998,285206556
391643,196317911
292646,094792426
180592,898958057
75015,1779850945
-18461,800223887
-91786,8130747676
-144834,085256398
-184699,83567059
-206107,893325403
-207832,311791748
-192108,646172106
-155414,02740401
-114492,848930895
-93027,4322794825
-84214,8856723905
-66164,1182857156
-40212,8276059628
-24697,6780589819
-23164,5210984051
-25255,7609449551
-19468,7211486697
370,884077131748
25515,8993540406
37329,2311154306
29063,8571675718
13953,680822432
10763,4053794444
20538,6042999625
23510,256467253
11997,2962900847
525,187348008156
1818,25392359495
13032,1197487116
21819,0132198334
24994,8629660904
24777,7627185211
22905,0347874761
28238,5951500237
35385,0872673392
24263,1175399721
6033,28695377707
8362,4943909198
26530,0619906485
36086,0740135312
28297,4443459511
17320,113586694
10458,2769104093
2468,80518844724
-1691,95217597485
6629,53768581152
21530,3674393892
25150,972134091
15743,8556938767
12090,1808742285
14632,4740983248
7705,02010622621
-1033,46305025555
11427,0843239725
41308,8812525868
52762,8192961812
32616,1212722957
5926,65045706183
-4505,79247874022
4040,71595835686
16167,5376290083
18318,8643808365
9728,03871328384
-3278,34921291471
-9588,41647720337
-6050,67735373974
2264,07042562962
10323,2962923646
11184,0384598374
9515,88886713982
16916,6391556859
27439,9694769084
33168,9262918755
36650,1113542914
35987,1504544616
28531,2068936527
17763,409535408
10666,0527515411
14091,6970238388
25959,9067416787
34565,1675695181
35139,1036867127
39780,1111579835
53194,950556457
63597,512435317
71750,5803306997
83474,1674022935
89156,8157157898
84301,380526185
69995,9933732152
50381,7378467321
40273,4871659614
46987,2495535016
62530,4040262699
72499,1513607502
73601,9473226964
72019,5712001622
77394,3371558785
98678,5862057805
122974,33353591
136099,304328859
146189,565951693
155801,784311026
151628,107067108
132832,255580306
118314,6754843
124299,601760581
143629,072891235
153499,067247093
150586,502069235
152571,849734128
156021,920811158
148702,076280296
148776,047177434
163833,894547045
176814,059330642
188688,152625456
200837,007612348
193427,175919175
160099,888591707
130320,348940015
130303,366423652
145049,650719702
150466,27230376
144012,316646874
134233,340561509
130768,45503971
125884,221659303
106461,608811498
86449,7503058314
80440,3426606357
79994,5604588687
76040,9113943577
68682,5942479968
54942,6253299713
26830,1959092319
-8518,44667994976
-27458,2640668154
-27148,7372310758
-33900,0276750922
-58439,611022979
-83300,8579177856
-95157,2091751099
-96734,0672272444
-98886,1072243452
-111879,447770521
-133016,940988868
-147884,868672311
-148373,609531105
-138002,209522307
-127683,520892464
-132061,117661387
-154203,613902241
-176717,573428392
-187774,82559675
-194754,302904204
-194331,039638262
-181703,896532729
-173595,653658316
-172660,608752266
-167146,410506397
-159896,815745642
-159451,092463367
-176608,164889038
-205690,175192714
-217044,194337919
-204066,752519503
-190666,057361349
-190696,606597185
-199032,157760561
-204890,943068966
-205453,908692002
-201656,23968922
-189766,253891475
-177020,808808275
-169972,805803094
-170534,828084309
-185243,073322758
-203411,901215315
-207034,31242317
-192665,843165308
-167503,970394239
-145093,50658714
-142269,275008827
-162278,183691636
-176739,507288322
-166686,018484503
-158845,907426931
-172757,189751912
-187863,496238112
-189562,122374207
-192026,721227914
-199361,270163059
-194160,910179973
-171224,96726042
-143531,413509011
-123702,728386819
-115384,429319113
-115427,3830356
-122992,662515566
-135587,654827625
-145678,767637402
-150561,20656693
-150422,784326315
-141697,098126143
-124205,937569365
-115209,635484427
-127982,006846666
-149978,132783353
-160099,148651093
-147473,390837543
-127730,175329775
-124982,552013934
-139977,652214408
-154149,997259617
-154119,23331812
-140924,119514599
-116455,869860202
-91808,7073341608
-84053,1790524125
-89753,5441191494
-93958,4201772995
-92195,8374629617
-88938,905123651
-92170,4773477912
-106595,271948785
-121617,094190478
-124490,545304507
-117267,914298624
-106986,653108418
-98949,8722986877
-98376,5041458756
-101089,260076851
-99024,0556593537
-100101,098158717
-112777,311538458
-125009,357639939
-121112,545167767
-104277,361824274
-93722,0225756466
-96642,9238054156
-100757,062268242
-97104,0727964565
-85463,9975735545
-72590,4999093413
-68067,9672155678
-75046,480114907
-88007,3586078584
-93450,3808181677
-89228,2064399421
-88909,4587964863
-94181,6763934046
-93152,668826241
-87289,4686558619
-87756,8674525023
-91164,0478788763
-86750,8930885494
-79523,5289603844
-85411,1047176718
-93999,8202294484
-85852,4956482798
-75821,3029657006
-76866,8422239237
-77518,065894112
-71697,9057029635
-59272,0123878121
-48568,1178528368
-55085,0489665568
-67090,1848836914
-65461,3669044822
-60479,0160340965
-64349,8780226633
-70713,5435418095
-71161,1049489826
-71014,2916386873
-80829,2990986109
-87779,3095215708
-73673,7466720417
-48145,5886451341
-30811,0654676855
-27495,0353216976
-31488,5480981171
-37466,2544666454
-40154,2829787359
-37737,9649695307
-39346,433719188
-45740,7172829956
-45208,79114189
-41919,0476633832
-51813,4322742969
-64351,9930176735
-58485,6860023588
-42691,4056795537
-35276,9593114555
-29748,4884538949
-17016,5680361092
-12682,4648970887
-22804,288944304
-33273,1260550618
-38582,2769296467
-39110,2972667813
-38369,6700994894
-42041,6972946823
-44636,4251031876
-41801,464869827
-39763,3936863691
-43002,024429597
-46325,2527414858
-40917,2614365518
-39085,0909818709
-50978,7577408105
-56854,9665488005
-48940,225594312
-40231,0001221299
-33411,871786654
-26501,5108281225
-20185,5952625722
-15645,2788499892
-16151,8094881177
-14886,9530007243
-6119,325763762
1168,14237397909
-351,32049497962
-6307,21656316519
-8706,53158903122
-8979,82778418064
-11784,1980357841
-11345,7855656743
-1785,69130730629
13169,4929431081
29137,4800646901
45847,9549518004
57863,1831843555
54019,7034361362
39629,9009177685
30168,3072423935
27206,8463934027
29659,0284586251
33568,1662859321
28997,0759280324
18317,495193392
9813,68726379424
8029,02463042736
17621,7058125734
31251,6198260188
36980,3558923602
38745,8301711753
35222,8471432626
22211,8005180955
10725,9044222236
4725,10474765301
-5487,90459433943
-26564,6239008605
-49142,760624826
-54441,6301964521
-38502,1903254986
-18447,311317727
-9956,74325275421
-9196,16820299625
-7404,21814268827
-3370,36141234636
3236,72738957405
8374,02092573047
3703,13974100351
-5052,89015471935
-5703,46414518356
-3241,82328379154
-5316,30174222589
-6383,70647627115
-591,58982783556
3133,05256164074
-2369,29865881801
-3176,79956364632
7448,6839351058
18721,3403027654
26812,5923783779
29766,373159945
22857,1618183553
15008,269241333
23234,9914563298
51833,9883790612
76846,8136146218
77809,8913680315
78344,836922586
105035,565485597
150242,791633904
198546,909798406
243540,535216749
291055,978263795
354385,639705598
424550,844575822
478152,26561825
501998,178181887
492623,949080139
452677,390249297
385057,619286522
301450,393250376
211538,441972792
103858,562038004
-21809,2349070162
-135835,135890275
-208751,507295549
-231356,7773211
-223037,609613121
-214546,894798517
-212683,951262191
-201511,005248427
-171012,040336788
-125717,431812763
-77891,6710857749
-48397,6431174981
-48379,8020496964
-57103,0770815611
-45667,6463649273
-22180,9837123752
-12380,8345193267
-7396,95596021414
13178,9573928118
35602,8631913662
41415,5456513762
37562,6395326257
27315,1343497932
10451,1302076578
-726,878907799721
783,031828641891
8846,62414690852
12633,3649420142
7370,49660968781
1379,95687639713
8251,42431545258
26867,8238314688
39434,7744962424
39736,9938017726
39558,6974124908
48361,7957682014
69210,1569249332
88245,0158683062
85500,052575767
73356,024913311
75060,6097850204
90015,0201827884
104722,758813784
109131,027337492
104745,222190857
99741,0239038467
97453,9108470678
93298,4547934532
83197,6436679363
74741,8900339603
78590,0034035444
92488,0902467668
107123,319982765
117700,805732697
119719,666356623
107771,193895578
89884,2656841874
85207,7970287455
98483,8710886836
111746,859609067
110458,745560825
101099,242971003
91045,6736895666
79259,528117612
68864,7766896188
66003,8065601289
71605,6116021574
87917,6365304962
110686,100709051
119230,3616153
109613,689393252
102263,835683614
109072,475085631
122521,431900007
129252,755661547
127495,582372308
123379,312097073
117031,590826079
109854,954802856
108940,685118958
112218,383910447
115910,124948025
123386,112391427
130414,768749293
133855,121803701
141190,902299196
154905,876499593
165529,340681821
161014,564452499
146016,540513813
135420,389648587
136828,943330094
153788,072635286
177591,159787841
188005,404444873
177979,386390835
161508,422051176
160497,238017991
186125,253493726
219734,912090123
230536,484193146
215758,387978211
200931,957413042
200869,209951416
207234,530998245
212577,584751844
213013,399934113
209652,165330112
213936,401812375
221615,575968444
217834,644717962
210589,080697268
213384,66616312
223400,558005944
230453,786594093
226903,462031469
220636,204740712
224367,663875192
228228,383109927
215404,171852648
190074,982318729
173009,528137803
172629,142450824
176415,620390892
174239,429382533
163529,970965564
147688,369007885
135467,310709
130088,172614217
128491,608283281
127318,10381794
123952,971120402
115330,819977924
100248,261745304
78748,5920081139
51891,9909839928
28853,4403604716
21064,2150218636
22561,2915277183
10545,7100303173
-20511,8793271482
-46204,8750187308
-56198,05150567
-66463,1750519276
-81043,9922789931
-94421,9095948935
-104255,787244707
-102698,086925104
-98303,5672576427
-107273,649469376
-121803,316708744
-131284,659343868
-131252,353962243
-122351,8319242
-113958,626183867
-112542,569260061
-118988,462545276
-128436,823316365
-133933,625862598
-135313,732095242
-134290,544927716
-135233,301068291
-141265,811131895
-141193,80464828
-131242,527970493
-123217,598620236
-122382,035392046
-123485,435719937
-122959,374714851
-123961,517688811
-123269,784401834
-113018,693843529
-98761,0018337369
-94831,1041302681
-109504,408618152
-130006,435429692
-133181,602970406
-121925,361623168
-112490,573880315
-106827,752175152
-103560,193798065
-105918,554244161
-109155,244007349
-104352,387863159
-97133,2603392005
-95923,2851297855
-98775,2243900597
-98851,8054193854
-85243,3324734569
-64105,693613112
-64559,5852083564
-89010,9455284374
-106079,003132939
-97408,9029470682
-73446,287759304
-59983,3772003651
-67676,5660067922
-78154,6572901011
-77926,8598641157
-76944,4719942212
-85893,4492354393
-96235,874761641
-91334,2302073836
-71254,9434820414
-51290,2350604534
-46328,1768942475
-59509,9283165634
-73757,6598523855
-69222,9198000431
-53400,3063031435
-47409,0774593353
-53550,9324849844
-61692,1691820025
-64442,2444249392
-55388,5189100504
-35578,9119979143
-26200,345018357
-43190,4164794087
-64838,1864519119
-67689,3590189219
-57808,2257454991
-46698,7427532971
-40669,2534527183
-43032,6324310303
-49109,3636822104
-56937,8894162476
-64443,571300447
-58049,4408781528
-41202,9884135723
-34690,0324590802
-34398,3155213296
-23891,744040966
-13126,9348824024
-19678,5213491321
-38417,042437017
-53572,5154107511
-58705,5375865251
-54997,5072954297
-38897,284160763
-18043,7021084428
-12328,9693539143
-21476,5958672017
-36305,5819158927
-53018,0321282446
-60181,0068278909
-49680,2564934492
-28649,6686834395
-10227,1257906556
-9356,60144870728
-27963,5526440442
-39222,6773544252
-22671,8972180188
1617,18630373478
4129,31492664479
-10128,4071526527
-21228,6355559528
-29878,5064177215
-39674,9552969784
-46692,6308355778
-52745,8661812991
-59934,6048454493
-63865,3580243289
-57579,0540476888
-40225,3555817604
-23425,6236745417
-16069,2267041057
-16384,7834055424
-23046,8120837063
-30740,9555021935
-32568,4868401736
-31539,6906634867
-34162,3331716061
-42492,462689437
-53436,6251573339
-62407,1081808954
-65469,3772245049
-58552,5104109943
-45208,3139238209
-33587,271983929
-27850,4081963599
-31996,3596646488
-44247,7937320769
-56226,6821494102
-61358,8406355232
-57809,5566658378
-48314,8233035803
-41393,4091592431
-49938,6910130531
-64514,501881402
-58187,3298591375
-36745,5098409951
-27675,3152423501
-31282,0354816318
-33470,6503229961
-34666,7627548277
-42062,1811125278
-53645,700307399
-52903,3520878702
-37654,6258476898
-33083,6929651499
-45912,2171909213
-58332,2887668908
-63913,2070725514
-62435,4362890422
-51799,3446679711
-42600,097020328
-50733,9062696546
-73602,1624091566
-86929,5754209459
-76228,8646660149
-62857,8275478184
-66252,8050388061
-71094,4933286011
-62220,8153270483
-45419,5772968233
-34607,8802027106
-33760,5552354455
-37493,474234283
-48327,9612447023
-62382,5113583803
-69416,8366096839
-68129,7853393555
-60864,1252994537
-52966,3441789746
-48564,3554730415
-49100,3451836407
-53597,2589132488
-58386,174746573
-63167,478046
-66918,5265498161
-68901,0265424028
-68655,4958115518
-64814,843206346
-61279,8223862052
-59991,525182426
-58280,8752117604
-53230,7959893942
-44054,2530575991
-32557,6254875064
-20313,3778628707
-14495,3881804198
-20341,7203211188
-32555,6421222687
-47535,7588267326
-61749,7570039034
-67679,8993383944
-63200,53252244
-56683,5184301138
-55841,1791985631
-55599,2764213681
-48442,3528961241
-38661,7168866694
-31380,0035436153
-22887,8749035597
-15111,8891380429
-9783,04138094187
-5025,92416196316
-3969,58848977089
-766,705484747887
11155,6014581323
22121,5364533663
28352,7943775728
37182,2283117473
42041,8793314695
33674,3141915798
21861,1594196558
15153,3504105266
8112,29363098741
2668,80373227596
6078,93632423878
8315,05061388016
-3610,10961372033
-18394,909130007
-19936,7226430178
-13399,4889066219
-12371,4782990813
-15219,9392372668
-11661,2228910029
-10139,6506854296
-26954,8657934666
-62350,0697798133
-93740,2957661599
-97618,4207880497
-86064,0835189819
-77888,5836167336
-71419,5666766167
-68103,0519293547
-67788,4396318793
-61413,5809558034
-53086,7541972399
-55829,1164143682
-61894,4972441792
-60252,7391972244
-63863,3358097672
-82211,8580986857
-106956,224003673
-121467,192532063
-115421,56032446
-98260,4183101952
-82762,1243463159
-71352,1082221866
-60283,786912024
-50527,6246334016
-47161,6019867361
-50538,6500467658
-60660,3248727918
-73805,2278581262
-79852,4057358503
-74267,762838304
-57508,5566374063
-27743,2737760544
10703,4263913035
44439,0556684732
79352,4447684959
136819,024226278
214027,487658739
294776,48212564
361263,266900338
397096,914164037
409216,738817394
405791,469147325
376905,815881968
319969,287766457
246899,064921238
165332,096268713
70794,6135523915
-40416,1545965075
-154154,991644263
-250432,24021849
-311935,908740327
-326872,002922282
-321339,618790761
-322777,307868555
-304889,646622926
-254004,696991503
-204630,883593678
-172886,334405992
-150438,758813769
-135808,23463881
-125516,899401903
-116676,440773368
-116438,819062792
-128252,65863061
-136423,914744735
-122011,920304298
-91887,9830701053
-68316,4529077634
-66713,7463160753
-82562,6608469486
-88964,5021169186
-74093,1496328115
-55301,0570818037
-44497,6438930035
-41221,0116014481
-45460,7433332205
-55065,8243937492
-63216,3188037015
-62715,5482621789
-52102,0388501883
-39181,9689759016
-36446,051550746
-46803,6891377531
-63872,5200760961
-76952,4051266909
-73222,328867197
-57410,4447945356
-43945,3814844117
-35401,6129445434
-28816,5204768181
-18716,0904635191
-7383,06640940905
-2145,50250312686
-2927,72989696264
-10582,7612167597
-19867,7293995619
-21486,8172929287
-14049,6200574934
416,073887765408
10854,8595511913
4385,52736246586
-6811,62548065186
-673,243413507938
18099,4374212921
27856,0714175701
22956,0515139103
16092,0433572531
16326,1406671703
18431,9326360822
16698,4998929501
15721,698482275
15053,4616127014
11332,507268846
13770,9259684384
28132,005711019
44149,8284467459
49203,8090826273
45868,3859517723
43389,7343384922
44959,559237957
52536,6824001074
58772,7358056903
58604,4458085448
61493,7721500993
72848,2043881416
86655,7233479619
86312,8225517273
72218,5989784934
71782,4557980895
90336,6683311462
103547,542030632
101167,275854915
96813,875310611
101891,186320871
117594,796444118
137853,166569293
150177,941953361
151350,993979253
154851,881688029
171837,500748694
196330,092356086
217764,427573532
225904,507495657
217831,877427571
210898,607249647
213357,310657807
210989,554352101
197360,698541209
185264,035047382
186728,405111365
201427,282928012
225436,560544141
249495,762661092
259316,128241649
249180,37657921
233093,46561107
231700,718920171
243284,557568461
258549,695811391
278173,097281326
284298,581411734
263018,51305905
239841,622995138
242923,34692467
269473,762016296
297080,488548845
304094,161838353
280163,651588917
244214,580773145
227740,572701693
232443,636433691
237723,819882572
235257,593101382
235455,814826488
240126,943042073
241133,537721962
238025,323370934
230326,502270222
219050,944643915
208080,063388199
194846,40046515
174378,582507044
148021,669908643
121308,086859286
99080,9847683907
88884,7760173082
93040,9633163512
96087,142267108
83176,5959948301
60034,977349937
35332,7870599329
13619,0461429099
4035,50166791677
6522,91187041998
1183,66620337963
-25978,7601733804
-48601,4791923165
-41665,8550006747
-24566,4825716019
-16405,6388510466
-18519,5691294074
-31731,9483667612
-53580,6320679877
-75438,1819252372
-87210,2431120276
-91855,3522633314
-92930,9765987396
-86801,4374314249
-78391,1821555793
-73034,6858648658
-70986,0390021801
-69306,7617238164
-66859,6232129037
-67460,1810862422
-67836,818996489
-66015,411105752
-66381,9201594591
-65943,2333233356
-63943,1513158977
-62707,3823025823
-62413,121663332
-65076,3892616034
-66092,3091560602
-59051,7736605108
-47439,1901924014
-43709,5951875448
-51951,6774123907
-65861,9892216921
-83225,1448324695
-97109,4826586246
-93605,3463888764
-70076,0665957928
-45795,2406787872
-44422,4048137479
-61162,2920467556
-72518,4308538437
-75057,32320714
-71945,004861176
-64219,2574460059
-66729,6589174867
-78734,061196804
-85758,7720095515
-92186,9868183136
-106559,289343879
-118449,862882614
-104672,121805847
-70193,7470436692
-51874,2124637961
-56128,7710258812
-54820,314633891
-40855,7170099616
-32728,6309281588
-31542,0561814904
-21604,020892486
-11856,5643193945
-19269,9958437979
-38675,2613142729
-59734,1888040304
-74543,861098811
-82298,0697073042
-81414,6733994633
-63107,9485354126
-39132,1566848904
-32108,3556249142
-39259,086001277
-44924,3405378368
-48527,6332250312
-53988,243055515
-56526,344920069
-55186,8813582957
-56391,9076047912
-64872,408830367
-74230,7925035246
-70073,7569664773
-54545,2862036806
-42321,09551806
-39128,475999184
-43555,4427266717
-51305,7337494642
-54478,563945191
-51640,2078342363
-51888,2875428647
-59002,116321981
-67209,1990842372
-68219,2059639245
-63453,5742236525
-60111,6589324307
-53520,6577649638
-41131,7908456624
-34686,5584332347
-42209,6091698557
-55353,1504736319
-59813,2591808662
-57950,5748409033
-60507,1623113453
-66316,3175323606
-72570,3053782284
-72509,3081410527
-62741,667313084
-53904,4576286376
-47589,0243055224
-42030,8579010665
-47668,8143795431
-67306,3274117708
-83016,8203947544
-75440,6657993197
-51626,3150343895
-36650,1938862503
-38087,2244435698
-44611,2622610331
-45478,2604264617
-33227,8349164724
-21051,7840780616
-33098,67826882
-56324,856680274
-60317,2472230196
-47761,6290932894
-39905,9497236609
-40736,916298449
-45930,8662036061
-55888,44813627
-60107,3251543045
-50635,0899947286
-39301,8970010281
-31296,4096755385
-22663,2658291459
-15936,7757661343
-11269,0008080304
-9761,79965651035
-16815,7365210652
-29434,647963047
-37757,7405229211
-38538,4797198623
-31842,1330226064
-20609,5252622366
-14944,5052498579
-14106,6027088165
-15770,815749459
-28626,1113520861
-46255,7357110977
-47572,9825928211
-23721,8729881048
9191,18946733326
24449,1550391614
12614,086640656
-9855,96660411358
-21247,2984362543
-21392,0728847086
-20581,0972692668
-16810,1945433021
-6978,47432249784
2557,89652296901
6613,7057184428
8210,85043159127
11504,8382076025
14071,6370361447
9592,82182330266
599,210013076663
-2620,19454780221
-1768,0699274838
-3607,80703419447
-4179,61547298543
-949,698023453355
-5315,07127064466
-21805,527346462
-30764,2905837297
-21406,3439311758
-7146,25113806129
1203,87110486627
5989,58174043894
9840,73829811811
1385,44966258109
-13347,0414690524
-7660,90655830503
5086,9551282227
-1499,64111188054
-11966,014301151
-9917,67922287155
-5397,63671928644
-6644,15659400821
-13104,6611492038
-23769,8406449258
-34917,5565027222
-40433,8502516747
-37761,3243465424
-25844,9925350547
-7206,44367867708
7392,0260258168
11764,7502931505
11971,4795494676
16354,490100801
20093,1686618328
11177,5030860007
-3008,99485868961
-5122,56125283241
-819,226675570011
-5889,86099469662
-17523,7281763554
-21691,2711862195
-11302,4350560904
7732,12630981207
18722,7898145318
17834,5820237398
24196,5814411417
39086,6512847841
42799,5603394508
34418,9241897464
30336,9557088017
36779,6138186604
41839,1818315983
36854,1838983893
29763,8797650933
29405,1288042665
37700,2246471345
48576,572716713
51330,7252175808
51363,8558514714
55606,7627093196
55654,7368848473
55000,1077544391
60238,3541095853
62393,1968442202
61147,6626963615
62275,4707665592
62137,6338008493
56897,9988512397
50974,9599944353
45352,2262683511
34002,0268995017
23649,6538764387
23824,6291521192
27717,1387569904
22347,6939274669
6601,68861871958
-9846,84148693085
-17424,6655724049
-12204,2469645739
-5645,96633115411
-13803,1558963507
-32483,2462704331
-41521,1310834289
-31068,1659753621
-10756,649549067
4984,65831206739
6866,3272177875
-1005,98625105619
-2060,40387076139
877,556761562824
-5685,12566788495
-13119,3780987114
-21149,1202681959
-38731,3354678452
-55058,3401275873
-65331,6413455494
-72452,5927179605
-72520,103285104
-72306,8671129942
-73491,3955565393
-61048,5887636542
-36056,2236724049
-20611,5195287466
-25159,242444098
-35296,6313843131
-35021,57632263
-27473,8125570267
-20887,6885973811
-13896,2693068385
-4555,56207126379
8893,88331586123
37246,7339169532
92572,7340304255
167513,142084628
244337,918475717
314371,59305805
369420,189602107
406004,178382099
436624,383049428
460880,784137336
451667,066378623
397085,505652905
316597,809143543
224078,182018936
114842,826600105
-7189,05334250629
-119976,747273564
-202556,253376126
-251838,555310845
-279503,494773388
-301326,790878102
-319327,017375916
-318004,286371589
-288445,16168505
-239580,218377709
-189025,121835895
-150056,94625333
-124965,947688878
-108057,294299662
-96755,0147180855
-87084,2779506817
-74974,8174556494
-71469,7084422112
-80351,6198574603
-87262,604078427
-86027,8472603709
-79613,8259352446
-70324,3069809675
-65709,0709329844
-73312,7478938922
-82780,3841380626
-77175,1491862834
-65541,6073918045
-60906,1329997778
-55643,9588757057
-46067,4820307493
-36605,3348922133
-34451,95337677
-40893,2941062301
-44670,9455401003
-43972,8035539389
-47863,7064327598
-57035,1820499003
-66458,5341368318
-63989,242098771
-41157,3147512674
-22871,4319259524
-30661,5327765644
-47786,9809149504
-55304,7081709728
-48089,5642846972
-25526,5922847986
-4083,42700302601
-952,021614447236
-4818,05038985331
-7161,95685242116
-16440,4316628277
-29568,6812265515
-32275,1447568834
-21980,712420404
-9534,57887082547
-399,245186761022
1677,49384811521
-7722,15907227993
-18749,22118707
-19683,2550224569
-17054,8426999301
-18442,5706547201
-14271,4069722295
-4608,07542815804
-2054,75487812981
-3468,31211189926
1216,42383140326
12113,2624271512
16363,4174115956
8993,93165304884
6531,04833936691
17435,1917100549
30568,1777145267
34769,1151288152
29044,6669924073
21478,1377413571
17688,6811156273
14719,6653200388
15821,185698092
25284,469816676
38293,5772540867
45412,0932366848
40275,7286085486
34568,3692520261
43857,7904359847
63597,4645294547
76920,4434129596
76409,2451315522
69396,054992944
69862,4988619201
81785,2147593498
91141,1322078705
91564,7909729481
95185,2823718786
102193,484338105
98031,0294736624
89180,3599059582
91488,9243527651
101674,914959341
109597,657808334
111841,45726198
114989,693760931
125831,392886996
140806,375407755
153999,714299291
158705,518260241
152325,100938916
147753,214530885
155079,79995349
170657,953035399
185454,990992904
187916,033461332
180906,819650471
177126,381396413
178685,290294945
187941,522445917
199660,497437835
195777,200124383
184267,290083289
182056,027050927
179929,233267605
176412,771323562
179803,394314349
181308,124988854
173937,18193908
164995,486840785
159632,09895134
158241,044532418
154816,7085886
136653,948373176
110663,258780003
98655,1483402848
98443,7075489163
91033,315092206
75187,2109611556
63816,8429663181
58543,6105892658
51833,7983649373
46582,0561978221
46911,6129586995
39586,1037830412
9300,56758677959
-33003,9622893333
-59568,1197211742
-66562,299981907
-70335,803016752
-73868,7740928531
-76508,671179831
-83899,3546170294
-93457,8132255524
-98848,9697904736
-99945,4266877472
-98079,7299458385
-96102,6811028421
-100283,143480599
-108239,873099864
-110777,671062499
-113682,961070031
-120955,324073851
-119305,657305449
-107119,708153337
-97630,5574089885
-99528,4929070771
-107668,97362116
-114291,458259448
-119400,068007246
-119202,134402782
-112795,617546022
-107927,506305799
-105489,849687174
-103209,809832066
-103065,235422879
-99203,4021133184
-83841,5282450095
-67149,547248736
-59155,4998463094
-56137,6069815457
-56291,3641235828
-59493,9818923546
-65602,08423841
-73152,7086131871
-64921,1279010177
-29398,9392671585
7635,83697152324
19002,2183042765
1136,89219176769
-31573,5836532712
-48638,8172636032
-37393,889701575
-17135,7433445454
-8068,29521739483
-10745,4803587794
-20327,1722238064
-33632,7759456933
-42946,6018392146
-47905,8204622269
-45317,9273407757
-23501,9255465418
5109,84190609306
15007,6385350525
2252,16880178452
-20773,7603377998
-40486,241195485
-49878,0884295478
-45564,2187426388
-29221,6241508126
-10620,2937024534
341,699788622558
-3239,21465150267
-16207,7040687501
-26054,4531318396
-28740,5506554097
-23338,251836244
-11686,4089139029
-3092,09015114605
-3732,48851026595
-11040,326392062
-22510,625423125
-31582,7094415873
-25946,2477379739
-6393,8938998282
9408,45712029934
12141,7673504027
10439,5122946426
5805,6711063087
-4358,13703194261
-8927,77047728002
-3771,37689873762
-2659,95118207484
-12514,9621095955
-24759,6739260107
-33569,7008089423
-37157,1324667856
-32888,4816347063
-22328,2731488943
-9846,53369583189
-6105,48883019388
-18648,556050308
-32064,610286206
-26004,4412041977
-2793,30435208976
16076,4341281354
13318,8134254143
-321,29760912247
-3736,53407254815
566,491660177708
-739,623450264335
-5966,56420391053
-6154,72828203533
-3228,67088591307
-5731,72055914253
-13888,1953681707
-19892,5745608434
-20629,5042701382
-19841,9205922652
-16496,2767637856
-11071,0723848157
-10053,7311966345
-8382,55285235122
-3301,98489898071
-5502,79147798382
-16174,8325155182
-23006,1570746079
-19819,1491176821
-16638,7775717378
-16598,3254831806
-7085,94741170853
11309,7291644048
22285,1600164697
21605,07866548
15214,0524347872
2114,47584670782
-13772,7237748131
-19863,759412427
-15903,6176640391
-15641,0595156997
-27228,0981920362
-41506,6067727208
-46251,9035137221
-43291,9585114084
-33559,4936997581
-13734,4870778993
12168,8374228701
30463,9121336341
26455,0301782787
9208,63664375246
1235,39045763761
5833,4557084199
8385,30270214379
534,937892511487
-10746,5180608332
-17081,7193103582
-18789,517512247
-20056,0242228657
-19514,6839414835
-11208,7252448797
1538,21759325266
9142,68850506097
13506,6187432855
14049,7214447558
7670,95117208362
11435,3949754238
33024,9671189487
52210,0366762727
50808,0673001111
27006,1933634281
-7224,74160155654
-31567,6701608151
-32777,9444746226
-17948,7375464439
-3186,29908674955
4697,34080809355
3842,34627474844
-5129,15965002775
-10844,5879943967
-2998,46550762653
11325,0083985925
21326,3298697174
27849,1928362176
32695,6261455417
32741,0895072222
25018,5214336514
10205,5101767778
2152,28696852596
12265,4531283379
29747,6518603563
43391,224395752
51881,9138766825
55629,8331076205
53139,2466178387
41107,9791374505
20553,2036186755
97,3405102193356
-5802,82348743081
8098,82044240832
31112,2229680121
47703,3763939142
47842,6133118868
37685,3565600812
31992,7041263953
35851,4716582894
51131,3722023666
74712,4681469798
87761,6999098361
81242,9908389561
73106,7827511728
73975,7123112977
76586,8835934997
82421,3575547338
92206,0813961998
101993,533747867
108692,770309806
104707,847681373
93268,0307092965
85727,7668718956
80999,1869823635
70581,5443207622
59763,1603054404
55386,5441009104
56061,9290045127
62160,9581908286
63150,2419570684
55463,8854217529
50590,5031272173
44830,1807915419
34079,1645509005
25659,2172119021
18130,8041633368
6338,52128377557
-3812,97910955548
-3846,21999305487
1724,07484930754
5158,46671915054
9143,62586700916
15416,1265359223
22033,4909498692
27779,3280847073
29272,9610019326
25923,4046831429
14006,2200891078
-5697,97718667984
-11439,5471519232
4816,33393609524
20238,0747143626
19212,6403641552
4048,65730375051
-15209,5048680305
-26080,1052640676
-23868,543129921
-14080,6495321393
-7767,81863093376
-10757,2512366772
-23718,5082610846
-42556,050950706
-47553,1210507564
-23069,8484395742
19470,151124835
58711,2433925867
84491,9368216395
102551,236550141
130081,330117822
181519,427049041
252774,153791308
320741,402751207
368467,026402302
403162,339497805
431349,510438085
441849,55600822
423466,359106719
374617,484739125
303016,97296989
218088,850048721
120810,533917964
15068,3090495467
-86874,2907384038
-177127,453870185
-245558,968255877
-281189,071133018
-290966,031149536
-283893,983511403
-258580,556254417
-225069,20994401
-201960,411409259
-188840,194010988
-169400,424783632
-142043,857143968
-121071,895129114
-110597,864443779
-105136,454136711
-103107,717680067
-98595,1074945927
-81375,295280993
-57575,6692373157
-44552,2142593935
-47494,4913556576
-55346,3679615855
-57814,4906958938
-62686,4687205255
-71209,5842071921
-65698,1996235847
-50740,1813049316
-48802,5059989095
-57270,5591334999
-58560,6180142164
-49313,6968243718
-38907,9550077319
-38333,1946817636
-47292,5005568862
-52258,2176347524
-50296,0459668636
-52935,1223594546
-64571,3033907413
-72897,5801812112
-62066,0375363976
-40418,0522332788
-28088,3649424911
-23224,696577251
-19021,5090495944
-16958,3284477983
-19158,8332297802
-29820,1186037064
-40413,1580845118
-39068,730453521
-32608,3685416281
-31118,3602235019
-32400,7007709146
-32796,7022951245
-29398,2759759128
-19211,7443963755
-13623,9821557105
-19271,8526635766
-18567,8744252324
-4383,4919308722
-192,601305687334
-18474,5767688751
-37168,7114207745
-34887,325663507
-17282,1918638796
-3903,60957202688
1257,35531941056
2890,94150269032
-3357,95606389642
-13871,3620350063
-17719,5606543645
-14828,2633289993
-10290,3810957074
-3865,74746476114
-217,193973306566
-5548,08152125776
-7890,61174452305
5176,94737330079
25167,6947297603
40179,3214825101
42876,7780186534
30596,3151155412
13652,3162719011
9136,99947488308
21766,1831570454
34918,1349318624
37370,7832716703
34438,6069984436
27278,5616114438
22856,3375262022
34140,3221233338
55768,8730540276
75967,032666862
92022,0682369471
98751,815389663
90182,5150178149
74710,1959535778
67257,3477939963
71293,1803566813
78655,7092329264
85432,7047529295
99908,01707986
116435,968610346
112280,733495355
89650,6106960177
78390,0232259259
94386,623057127
121418,91960007
139938,563791692
146260,612964123
137789,821428004
123929,124439061
124626,754314303
134493,152037323
135714,463215828
133417,824542835
142474,620188534
157218,36844945
159715,381442547
150488,593647569
146835,871982156
146515,876237988
134875,45205313
119655,666156888
115814,370394886
123472,985183075
126601,151589692
111437,829845071
87477,1291854978
68988,5697746873
60377,0379552245
58857,2929936349
59871,8649241924
64786,4020141363
63788,6565147042
42087,8950490654
10587,2488605678
-10971,2418141961
-20157,8289213181
-22904,3876638412
-26689,8243634105
-38347,3162074387
-54045,1410987377
-70559,7921648026
-93470,3879618645
-118582,055762291
-133836,895399928
-135772,69900763
-133473,107458234
-135909,908390522
-142705,858194947
-157560,580415137
-174967,38159889
-174534,463793874
-161411,327703893
-160373,587946415
-171848,753496334
-181316,982974946
-187081,623153567
-192725,350830436
-195470,516377091
-189926,59017846
-181863,763683081
-187787,122299552
-205650,114886343
-213304,453585893
-204747,829292655
-193306,510755181
-185331,02546072
-179243,391541004
-178161,088782847
-183811,477770671
-191776,650276572
-196073,96698606
-184796,313393295
-152182,436829865
-118465,526950933
-110124,671207815
-131074,761889458
-160369,206090331
-173633,250223517
-166009,306484222
-148014,419966638
-134415,46627146
-133477,511514843
-145196,486362189
-162130,09449093
-166189,684567101
-149866,320599437
-126843,280992508
-116218,747391999
-123653,50848648
-133551,535978071
-128147,25287503
-113486,763466537
-108852,151452184
-114677,839768946
-118081,041019633
-119252,25113678
-124614,378639698
-129032,281869471
-123530,982757449
-104413,012583032
-81461,4870261401
-75444,9925190806
-89216,1453794837
-106239,162451208
-111396,752429098
-100155,13530767
-85866,1943116188
-84979,3119721413
-93276,99178195
-90856,225828439
-74877,4845839143
-67077,0814227462
-69885,5022653341
-66314,1519700289
-57280,9356035441
-50854,1957395524
-47271,3691637516
-48465,4243856668
-57083,5609663427
-65847,1394037083
-68827,3150676787
-65836,1428892612
-52705,2187606692
-37220,5039994568
-35438,4434296042
-37376,7412718534
-24008,4855299592
-4651,19499957561
1730,47441112623
-9018,21270892024
-29764,7605549693
-52034,5395203233
-64735,7731632292
-58392,6355580539
-40325,6717469096
-25242,7834796906
-17130,9777559042
-8456,98210962117
-3777,48792314529
-15025,2144281268
-26395,2717902064
-22902,586219728
-17500,6326211393
-19692,8234407902
-23435,2554482222
-24741,1102946401
-30858,2050587535
-43523,2176436782
-46318,6595517099
-29034,9685499668
-8738,06616675854
-1783,44420707226
-2246,85443919897
-5849,39869457483
-19719,8386195898
-40892,7124677897
-51806,0623639822
-45412,2570632994
-32218,5402277708
-23511,562445879
-20629,0464490056
-15332,663476944
-4639,5195158422
4085,46670138836
8382,03317523003
10342,5972775221
13936,1336085796
19159,6016668379
13038,2354230434
-4472,24236607552
-13466,807934761
-6341,64120191336
3860,47914516926
5926,06108258665
1182,23590046167
-4728,27115410566
-4570,66206037998
3976,65256148577
10973,4279606789
11141,9139163494
9989,61785584688
8190,4894168973
7500,99162375927
10099,1818009913
8751,56992268562
8249,01826351881
17832,3614758849
26102,6394202709
23989,2414636463
17100,8010441661
10728,0502029061
7600,24118441343
12516,2740901411
24638,630834952
28027,8727831841
17573,4498007298
11642,088675797
18332,5798202455
27689,9500995427
31363,2093899846
28837,8066053391
24321,3942241073
22946,0887788236
23639,0949948281
29503,9826697707
47046,3618125319
64744,899420321
68584,6926032603
62787,5233776122
59741,2166099548
70092,3590402603
95468,2053236365
116690,633353591
115001,37480218
98496,1906038523
84778,8433230519
84621,9999133945
102273,590792745
124917,24806907
132975,751483798
122378,317432642
103041,137023389
91263,0848821998
93574,0778429881
94466,1681812704
86469,7782636285
81177,701769352
78942,9049874544
77621,4291471094
81641,485303849
89416,2909955978
101773,72529763
121177,881893396
139318,47223714
146972,693619072
141620,09517467
127112,774759531
117067,189976335
117183,317248307
116489,621056288
108157,712363005
97652,3128105998
93197,2304487526
97654,6709646583
103499,572682664
103526,167908102
100347,940300763
93648,6726275384
77246,2441738117
56929,4269364774
47878,0630544424
46972,849973917
38468,2234991491
21284,5120235458
9496,82864394784
8611,40966331959
7823,02545517683
2539,33273002505
-1498,77504920214
522,859632998705
9418,62671685219
17145,0225426555
12116,0450295508
-1444,80344867706
-6746,83160692453
925,163919150829
14058,6336684823
26068,7213490307
32658,8506112844
32437,8764610887
27713,7183739543
22563,0147824883
11778,3943098187
-5778,88139079511
-11296,9530361295
-1322,46645319462
3762,15640729666
57,1295607089996
5231,24225823581
20206,2689580917
23874,7005448341
16891,233300209
24402,6359535754
62992,8599773794
122628,48776412
169212,51230216
194395,985254228
224958,039331377
275953,349020869
342034,447186649
411876,272531033
472871,3696208
507335,16762799
505914,681648649
469730,853530884
401587,903266668
316002,461894572
221427,451986998
115450,625960857
9102,24242174625
-86279,0411519408
-168944,241412759
-232580,202690527
-270828,184491992
-280608,211626768
-259464,867536306
-215246,896385074
-165879,403863698
-126651,351755559
-103445,44748795
-92154,8445951939
-84406,1193497181
-74584,9848400056
-64438,8704137206
-58468,8073166609
-54257,4464395046
-50603,804635644
-44959,7940349281
-25237,583250165
-544,636272072792
5536,55831348896
-4725,37975049019
-16632,0038891733
-24161,7530018091
-24183,9924184084
-15084,9217431545
-9730,1460814476
-18749,5743809044
-28624,0153706074
-27232,878364563
-17783,0761665106
-5628,06325423717
2134,94850948453
3490,3671219945
3579,92344474792
-984,305807232857
-13682,4410868883
-28632,0776071548
-36051,1156202853
-30246,5575088263
-17910,1389280558
-8904,28678953648
-9363,7805339098
-12819,8397244811
-2767,99550306797
11940,0700279474
9562,22265601158
-3817,58905038238
-11529,1338540614
-11597,8943004608
-8459,66605293751
-1819,50060492754
11220,1965483129
22710,2177633345
20800,1139985323
10957,2363858223
1705,48080509901
-5340,87682190537
-1800,67834484577
9645,62505745888
7913,75840324163
-7209,90562808514
-10606,9883540794
1735,54239797592
7560,70779341459
3375,38255900145
6772,45887464285
23332,6848266944
42936,0669068694
48217,3554932475
29127,7486444116
1428,70320814848
-6614,35264158994
14541,2304196954
39305,5002028942
37358,1848723292
19188,1271763444
15034,0877661295
29409,6294355989
48858,1544729471
61091,9631391764
54856,6924533248
39387,5197708383
35395,3744802475
39070,369269073
41185,2175098658
44348,3125641942
48989,8378068805
53926,5370736718
59649,9761831164
63632,2626460791
63521,9876639247
69044,8743573278
88753,11487782
107843,997781813
108610,755852997
98522,1868478656
90671,2026107609
86624,499922365
89218,6590415239
98390,6314554811
110238,113158107
118635,633590281
117505,388369411
113984,408502579
114061,611944556
112481,952620149
113414,017371669
125911,867148161
145864,855825841
161995,541405976
164555,8912009
158166,542946279
156318,269592896
159612,220810413
162521,02330327
165851,801326931
166135,486898154
160761,084397584
156629,127519667
151892,457927525
139713,72654438
126436,554599404
122409,949401349
128413,456667364
137138,518574893
137652,879155457
120453,893752016
90631,6824269593
71189,1744184494
71744,2620910406
72346,2910891175
57598,5452623963
32749,6251026094
14087,0424741507
12104,6898362041
9483,5432806015
-7269,39239773154
-25278,489875555
-42586,5724993944
-68173,4241339564
-92980,7878741026
-108932,336264744
-124885,716987312
-140765,475473106
-150564,593419433
-158379,728262842
-166435,611187309
-171491,042237371
-167489,786006749
-153226,785337687
-141485,416738808
-144745,010076344
-158299,074184328
-170671,570788443
-179907,392345786
-185596,003167927
-186521,813338041
-184240,722836524
-175793,727822065
-168092,795642197
-172246,341727495
-179329,79862088
-181518,676482022
-180028,532559752
-172168,125239253
-159006,933428943
-149132,466190904
-152696,020563051
-167283,214515328
-176872,631662905
-175012,564781427
-160839,680360079
-133494,076817542
-115185,247378588
-124465,148895144
-143994,563275158
-152613,148114383
-151008,376937419
-148521,791328967
-148871,803137302
-152373,364552379
-159386,48673436
-166527,63182795
-165755,886486411
-153362,762034774
-137559,641077518
-130956,596849546
-132745,166136563
-129861,282485366
-121323,242839575
-114304,522513926
-109823,167568207
-113927,064786017
-125890,6689291
-128749,039006352
-116328,556643426
-98753,1398427635
-88279,1522313356
-93825,9866076708
-108811,029549241
-115509,963230252
-110959,699664593
-104824,902592301
-100023,867467999
-96538,6080089808
-98966,4433208704
-108050,952536926
-111881,614669085
-101192,876516342
-83587,9401057959
-66231,3342595696
-57524,8732294291
-66904,2864311337
-81006,8522623777
-83871,1058341265
-80744,5886325836
-79576,2045761943
-79603,7591126561
-77580,571334362
-72039,6514977217
-67700,2987748981
-69638,8228648752
-70634,9588586688
-59149,8056945801
-35273,0357608795
-14482,7431613803
-21424,1919269612
-54884,8353100419
-76142,3258013725
-71612,0452495813
-67645,4868660569
-73905,2647656724
-78615,7992307544
-75310,2397229671
-63963,562966466
-55318,0303862691
-55734,7666857764
-53622,9788135886
-46356,3980270624
-41092,6152150631
-40080,701163888
-42263,0972561538
-41992,7045168281
-39375,2601115704
-43484,0828338861
-52362,0149241686
-56102,7542467453
-45740,5956244469
-25052,7439172268
-20902,1020787954
-36061,5045374632
-47930,2424977869
-52834,3318772316
-53516,8703704476
-50922,4093968868
-48473,0786089301
-45677,3614935726
-43451,1306404173
-44981,3223596811
-47961,8126626015
-43445,8429409862
-28052,700209409
-12311,9998576045
-10649,3674970269
-29002,4113356471
-55077,0020398498
-71036,35887748
-71271,7996351765
-57028,5718347728
-38774,4994543195
-27851,5413437486
-23523,3562585711
-24579,6434021294
-28531,714242503
-29478,5279043317
-31546,611496985
-43378,0702551603
-55913,3660030365
-52285,6403349787
-43150,0648855567
-47894,7848474383
-58132,2571815252
-61809,8146240339
-58229,0166766793
-46714,8519673049
-30918,6313821971
-17441,0334240198
-11593,7961506024
-11225,7454817295
-12574,8593767285
-20851,4761564136
-32277,3065651059
-39403,3945119269
-42272,2934180498
-31486,4311180711
-14186,797345221
-19640,0460968018
-39568,2702815873
-38162,6004423201
-17913,3392788768
-8486,4631972909
-15160,8253239691
-21793,013409175
-21225,0682867765
-18506,6414148211
-14411,1153281927
-4566,45125746727
5689,66818922758
4335,20588636398
-2764,89853107929
-6857,44208115339
-16616,2747829556
-32855,0982946754
-45273,2409379482
-39244,8146731853
-11765,5760278702
13394,3686177135
16222,9956803322
4464,6253285408
-1526,55569112301
3596,78779000044
11278,5767421722
20365,0516328812
32904,6878862977
43879,5530008674
44490,2692839503
29935,3143981844
6093,30253505707
-17867,7356684804
-30771,5254724026
-20205,0828588009
7757,39870852232
33338,2268328071
49844,4205376506
56318,0754483342
46521,5630027801
29143,4043076932
25009,0749524236
39422,0978119373
58320,6488991976
70528,9191637784
74830,9043078125
64803,5483291149
42620,8213803172
35182,6833317876
54103,2280209139
73025,1753815413
75823,1715814471
74954,0232023597
76459,5604311824
77373,7089276314
86998,8471436501
107839,552596867
119806,448567867
114773,65067932
105958,766710019
104765,902884692
116849,163935423
134011,917833984
137541,584525138
133202,15192531
139388,107050568
145182,324537396
134357,447790295
121467,189977884
124240,989381522
131661,755474254
128871,065285057
121517,514680475
117087,77978614
110132,219622672
92407,6018903702
67701,7673383355
49459,113848418
42469,0628396273
42376,8859597743
46252,702095598
48311,7343125567
45386,3499998301
43211,6810725033
45362,6802088618
50612,4157961011
55711,6075908244
50214,5331648737
30386,6123054028
16372,602686286
20584,2535246015
30206,0686829388
36343,1338221096
41965,3679222763
48777,3965829015
54401,0220041871
53631,5840330124
46327,7403568774
41676,9139297903
45406,1175850034
54590,8480222821
58751,348282665
45449,0825883858
22876,8817151785
18338,956646204
32251,0587533116
38736,6306043863
39857,9945711195
55810,6740496755
83920,766869843
115559,801643074
151516,070835918
187087,520679891
220360,90554136
264924,666441917
328584,141156495
399070,675835371
461332,071996614
507353,195761383
534505,367640555
538800,516017437
507111,076385707
433703,8883726
334622,735494614
229894,843694091
127443,484478295
24497,9665580392
-81574,4114657044
-174880,497217655
-235095,268554688
-262414,649982691
-261068,192916989
-229950,829263628
-181135,152432323
-134262,473783731
-90768,8455120921
-45375,3463409543
-14181,8289689422
-11285,4307690263
-17609,2744472623
-12455,8524261713
-3740,14560881257
-4494,88673406839
-9696,67830097675
-9888,24537682533
-7014,11797827482
-6689,37314081192
-7778,7737480402
-3432,81445580721
5093,87374615669
6834,73026460409
-714,058284014463
-9645,34598829597
-14543,9495064914
-11613,8397245109
123,354549825191
16158,9107666463
30366,9123583883
32839,4639081657
21379,768860355
8272,17990916967
6,70699090510607
-8425,01149795949
-15537,9983346909
-18158,5840725563
-19745,2616143376
-17470,8093280494
-3626,76927033067
15877,3991076052
24429,4321075687
23181,6762765348
23582,3006808758
26032,6326907575
27773,8637326956
28013,7682435047
26423,5519707203
23049,8275577724
19377,5080004334
16934,7241537869
18520,7430927679
21896,9221729338
22098,5040509701
28826,2732825279
44685,7243303061
50007,2288214564
39053,595178932
28063,6721550822
21964,3953258395
18396,3291949034
24435,9065700769
39206,8818046749
50473,7281322181
50894,5450389981
46052,1900824904
41712,3091745377
33444,0520569235
27083,7148742676
36471,6085978746
51591,5279687643
54654,0715893507
54957,5639951974
64960,3529748321
72054,1634748578
69193,6168664694
66746,7862042189
67051,3445649147
66956,1013324261
64604,0816692114
62101,3237999678
63015,4086378217
67890,1172868013
74595,136720404
79988,7566583753
84387,6471731663
92470,8895406723
103758,055086076
110635,427196965
118171,492896378
126162,8197788
124981,210942626
113139,171869516
95285,3128133342
91625,9503080249
110708,485334635
135137,569786549
150171,600128829
151342,79451102
148899,9719522
155737,442976415
168426,063804984
182225,431403637
194648,276188523
199650,959836274
198812,762715936
197222,740552902
193706,600057006
186291,837244451
172972,949845716
155073,986392319
145114,523797989
152246,265581489
172324,26779294
188975,958937153
186845,778983653
180259,622372866
187694,255117059
195902,996440947
190685,809103221
179619,953927815
174478,786309719
178270,344243884
178592,898751199
163564,610387221
146154,637760878
139607,013709664
131079,226539493
109583,837634742
89978,4730490036
89553,7368271947
97852,5982803702
90237,3197340965
64951,2081800997
38387,1382427514
15873,794824779
-3984,48695611954
-15101,6105434299
-16952,71702829
-19300,8221140355
-26540,9611442089
-42239,509421587
-71969,1469217241
-107283,00112097
-131112,288823754
-136884,699197918
-130230,041993827
-117439,376705036
-108172,213346243
-114524,66704011
-130985,0957506
-143137,114718378
-149640,133699773
-157072,825461939
-164124,493888617
-164550,595569149
-169179,947533082
-187546,643397748
-198911,138554931
-190691,340942085
-182342,252135634
-184995,73005192
-185647,715918601
-179102,314150751
-179685,632012904
-188245,044912308
-186764,235922091
-178521,912851512
-181952,296738148
-187702,196549296
-176514,302380264
-160744,908764981
-157139,858050644
-155016,278748751
-145425,08033824
-138105,852262914
-138317,798345752
-146609,768248826
-163831,688738942
-177430,38186878
-176544,150734127
-168396,866666257
-161947,248700172
-154038,196859896
-146247,803769648
-146703,431670785
-150469,7956433
-150996,715246528
-146203,567358613
-138450,980959892
-135761,178202033
-136671,648731351
-136543,978841528
-134764,532033503
-131992,26471293
-130270,822840035
-126934,062234163
-121540,645558327
-119073,754039943
-119507,404756129
-116162,006966233
-113117,819799811
-120312,138617545
-127459,839025378
-128304,829244077
-130607,785464823
-130872,898944527
-123238,978705734
-110857,780677736
-100372,712302327
-94830,5642977357
-92414,9973436892
-92385,5442360193
-92700,4840240479
-83743,6596502662
-69793,4547668099
-68971,6170713603
-74178,1897770315
-77921,2553511262
-91589,7249279618
-107491,625870943
-109621,453438103
-103049,538120572
-99437,478710413
-98226,3573921919
-100538,777102709
-102896,432520688
-96222,924171282
-93521,5804540515
-103159,004243642
-111094,155133456
-109102,548775434
-100298,824288845
-90159,3373062462
-83684,1089545786
-83880,1694683135
-85375,2864766568
-80325,5272459015
-72462,0450571477
-64809,2170559168
-56237,148006916
-56972,0206235349
-73005,0491015054
-87469,7916320488
-87330,1936269104
-84864,7913650125
-85813,0636115447
-80613,1536759809
-73293,1669887453
-69902,8691975027
-66196,0571561754
-57334,8601535261
-49454,4052573219
-56733,2776162028
-70742,6102983356
-74531,6832063124
-72605,222419301
-72265,2735023201
-69622,7542340457
-67485,6427407116
-73448,8643662781
-83171,4898134843
-87164,5814357204
-80378,9225267172
-69142,3234694898
-57318,5180489123
-42916,2169463336
-40044,622547945
-53231,7335330769
-68239,487305969
-80570,319775641
-85218,2458299398
-77222,6730114892
-68039,3718155175
-68337,2552167028
-73391,7594458014
-75417,061230287
-73226,3583081402
-71519,4018735737
-72406,909340322
-67264,5499623716
-48358,9087450504
-24680,1486849114
-17318,1724093407
-34357,2694247663
-56797,6668336391
-60919,225019753
-47162,03631304
-38101,7188009918
-45594,2793787718
-58194,2397764325
-61375,0742111802
-53018,2589647919
-47730,2792381942
-51348,6125546694
-52285,3603422642
-49153,2198165059
-48946,1915169656
-57197,5925506949
-65959,1197346449
-53599,0989867449
-25557,8402682543
-12092,9554149061
-24316,0448930264
-43211,3759258986
-49269,7138516307
-46429,2754682899
-41324,0337371081
-34814,9781310558
-31925,212198019
-32106,6386438608
-34020,8474388123
-43228,9509913027
-54344,5330187678
-57024,1668051481
-52412,530112505
-48530,5685131848
-51942,4488195479
-50726,1386595964
-34858,9082450867
-22083,2112475634
-26702,473100245
-39491,8639268279
-42227,8961289525
-35187,5630044937
-34154,8326970339
-38068,4767554104
-38170,6673006415
-39364,329564631
-46215,4877630472
-50392,1267504692
-46919,7028158307
-42702,0588134825
-43090,4772667289
-39260,7373160124
-19815,4392578602
6723,25483500957
15532,5225761123
-1915,69064170122
-24327,3022265434
-28965,0233261585
-14799,0317702293
-5404,30855909362
-10980,4386162758
-9586,05115306377
5536,9749071002
15993,2333299518
14168,0388178527
7978,42776978016
351,953798890114
-1707,54083442688
14133,2643433213
36824,7303714603
44742,9143609107
39881,1018702984
37218,1728428602
41945,6534466743
54396,3788892329
75378,9649373889
94991,7544201612
99661,0682555437
93708,1651265025
88659,7923116833
83185,4105857015
74944,1900393367
70191,4912788868
71466,0212331414
72323,7747911662
67003,0175770223
54127,0867757201
35131,2283507586
22445,6966528594
21498,1398284882
15925,2929602861
-940,292897343636
-13998,2245675921
-18263,6486143768
-23162,002623491
-25763,8465089798
-15495,8687948585
3073,15714985132
9843,3373953104
-3147,64151166379
-20255,893078506
-23545,0566620827
-11118,1976090074
-2995,47844737768
-12947,8839246705
-26188,9217706621
-32080,3418121934
-33116,395336628
-27275,1838820577
-15455,7401487827
-2546,84863448143
7707,58531647921
10765,9780465364
3945,26987439394
-10286,7176764011
-22389,6170658618
-21152,6096749306
-13583,7403377891
-16553,3854887486
-24668,7693503499
-20829,3713105768
-3401,2636000514
25012,686642468
59679,1291851997
83064,5904084146
98579,842593208
133318,866324306
188520,675510466
243872,790482342
303109,537275046
375999,628568009
434935,674623013
459508,855131149
468878,951052904
467088,9576087
436470,996050864
378857,780497164
307596,406688988
223436,936955154
119517,435199142
-108,988255016506
-113872,752444267
-198107,844861448
-246031,752317488
-264907,977370381
-259134,173840344
-233492,535913646
-200401,331483662
-169762,072591126
-143717,673569947
-121492,335258126
-102284,570312202
-80763,2977007031
-59093,4723430425
-52183,9029265642
-55787,873303175
-49060,4238439798
-28596,6885948777
-5138,9128330946
7449,10852864385
-415,118766069412
-10318,6527360678
1210,49765229225
19877,407348156
22310,0545416772
12810,5584381223
6204,31458508968
3410,58625364304
-940,585031628609
-2192,20313277841
6467,31683135033
20330,4621583223
27827,3511132598
27835,6745172441
26801,4924078584
24937,2561211586
23352,8710822463
20172,0354381204
13596,0619929731
16538,3633770272
34876,7757959366
51816,4784199595
53650,1021638513
47805,5890196562
46545,8479120582
52992,3510548174
59060,4713714719
52526,2995322347
39529,718824178
36040,4975168854
44400,5791134387
54028,84991768
56576,1140207648
58794,810525775
62626,4049162567
60609,2515562996
58183,6489137113
67103,3628551066
80981,5546951294
78549,3649419844
58803,5010984614
45956,383201763
53709,2559394538
71832,3373342156
85227,9753093123
87031,4410745353
79063,4397842288
65926,5871017277
56743,5780821443
61496,6522453725
74362,1573073864
85800,9907068461
90298,8902707696
77694,6410051584
53373,2391444147
49603,6794505715
82679,3486680333
118083,257786065
122714,541960657
114920,067240983
117548,494408414
123773,066218935
127195,406287938
133046,961787105
141557,082526147
141002,439207405
125964,43600763
111467,634537607
111734,166243911
118982,298825502
121644,872628421
123884,148715265
129743,138371646
133829,699372351
137085,968490243
150319,169111878
171108,463528682
181476,854862452
180144,41591996
180724,004838496
186501,599834889
191927,055678584
189433,695302069
182196,477304935
182386,753783405
186920,032343864
189637,510154046
194201,503263623
202995,2704252
216880,346821785
226756,888545781
220689,739419296
211202,738320351
215713,190864086
224724,107939303
224079,517611504
215137,703314185
204437,655813336
200243,599865556
206834,8265737
213263,539693043
209755,71750693
206218,745813489
209111,746586144
209725,38205111
204031,160527527
193256,23542048
184489,832212895
186397,362448692
183687,652205288
159056,429890782
128204,787237316
116053,900349557
121335,305775166
123854,512974262
113575,680038869
92036,2551058419
67115,1199573278
50287,5397683978
42535,6136979461
37043,0669451952
27382,9250085652
11603,8511249721
-9962,51468747854
-36058,4191669524
-58433,0642737597
-72046,8920506537
-77404,6211564243
-78449,6681985259
-85866,622363925
-104078,240237474
-122648,617114342
-129308,71081534
-122150,059613973
-111536,733297944
-112219,055635974
-121505,075861633
-125337,446196049
-124063,138562083
-125277,82515195
-133325,676296964
-147722,781792744
-152482,078421831
-136614,014984667
-118197,431832343
-118066,55189117
-129864,332646936
-126464,485203803
-104191,308527678
-94366,8944417536
-107477,414798126
-122618,426869344
-127760,4485102
-123856,295731872
-114241,423990279
-108023,620487809
-111966,358413488
-121033,897440404
-125282,780129731
-114925,169518054
-92374,4526704848
-75212,5998895988
-71224,220815599
-76393,9018149376
-89846,6720971465
-103351,474067315
-104107,40430063
-95706,482534349
-91368,5595605373
-94978,3405201435
-96711,5459387004
-88677,911331974
-76798,0728262067
-72153,8733143806
-79144,6461429
-86637,5444867611
-85458,1183880121
-84871,6221923828
-88681,2614462376
-87803,0033636093
-80994,5064413548
-76075,5441215783
-73191,9363168478
-68560,2888771296
-66380,7302154303
-59436,7568178177
-44264,1456759125
-46289,4776488543
-65988,0695444942
-74221,8641666174
-69168,3778311908
-65674,0643147826
-65485,3611897826
-59053,1790836453
-50451,3639106154
-54662,725761503
-56349,2326239944
-39194,3929948211
-22168,1122838259
-12514,3264411092
-5033,45544955134
-12228,2237561047
-32844,8342849016
-47539,1631626487
-54083,8908853531
-61083,2407913506
-62729,3457068503
-52815,911626339
-45119,7953540087
-56042,9854082465
-78551,9893454686
-90022,4987833798
-83713,8094028831
-70460,6973221898
-57965,6287387013
-49735,8010193221
-48615,9319634438
-49658,4588186741
-45762,4671539068
-41340,860401988
-41069,1758858953
-42924,5816928744
-43681,2857592702
-39871,3199412823
-32229,6538072824
-30958,2343971431
-47117,7621958256
-71150,3554067612
-80815,0108473897
-68459,9008902907
-47424,9536250941
-32551,5272723436
-30719,813156426
-41174,4517162442
-53705,4618884921
-58177,8954128437
-57346,0855372548
-57473,0349371433
-50694,5800186396
-42690,269982338
-55433,4781089574
-77031,6566140056
-75820,1423951983
-54268,2661661506
-33987,8683448434
-25505,6577909589
-32451,5078610778
-46311,9838325381
-51830,418941915
-50649,80985111
-51214,1451330483
-51558,8401026726
-53882,9722998142
-63392,913363874
-77606,3608588129
-87954,2054279149
-79144,5050440431
-54357,5555140972
-42723,8373528123
-46701,18242836
-45769,2976148129
-50465,5137192607
-70855,3674222827
-79458,3733760715
-62177,873806149
-44097,1014591455
-40629,6150764227
-48891,3005122542
-62301,2042869329
-63278,9858881291
-50336,1832086444
-36734,3120087385
-36208,2269998789
-60712,9592936635
-89331,0837115124
-91332,3242666721
-72078,9634530544
-54777,8970060349
-51626,5365329385
-59723,9529394172
-67556,7057478428
-68384,3452123404
-60764,0101750493
-46545,4007846713
-37379,361036405
-44606,1725447178
-57411,7161240578
-58291,7873772979
-58195,7948781848
-66196,2689491622
-68637,4711534977
-65288,4290673733
-59417,294873178
-42314,0403506458
-18515,7484381571
-7697,96773967147
-16563,5023453832
-25155,9718803167
-23132,6126872599
-27905,2744440064
-40877,8514028415
-42729,5852662027
-31001,4231508672
-18328,1817497015
-13280,7749303132
-18773,3613662897
-31080,7662019432
-39274,1608113647
-36518,9923253357
-22410,618730545
7143,40894594789
43363,0772444308
62546,064130336
59108,3988882601
45237,9362415075
33009,3718911707
21023,5702786874
8051,32291044295
12755,2881340683
33619,7582427263
41312,3781616092
25088,3450872283
2708,07786808908
-2126,8806155622
10642,9225473106
20069,1123538911
25958,1185347382
38008,3706861585
38449,3755907565
13067,6482925713
-23109,1893708655
-45954,8384280056
-46436,2745197713
-41301,8961317241
-48859,4570580125
-61665,2182953954
-62957,7403932512
-50515,5229984224
-32924,0546583608
-22050,0558202416
-27495,0509499013
-45288,9149346352
-61229,7935705781
-68274,448317904
-62613,2368503511
-45633,5330613852
-37187,3216354847
-46632,2329996824
-52155,5900233909
-41001,8142128885
-29339,1153353453
-28845,0599170327
-33873,1946015358
-39242,5450969264
-40791,2617549896
-33373,8617114425
-19920,2701708078
-11702,0534730554
-15534,8719736636
-23226,7939174771
-24493,1441420317
-18498,271725297
-5701,34062343836
14211,2807863206
40952,6588478684
74586,1349904537
110045,861513138
148792,350470424
201982,201983929
272130,287513673
343574,98432827
392365,32725811
413732,731976867
419422,39045018
406060,449266639
362490,851109743
292814,942333996
206775,80958581
112345,042682469
16115,1615312248
-75618,2398098707
-154374,662320912
-212849,046099007
-246742,308541179
-257980,852367014
-256100,236617565
-245280,399056196
-221988,392811596
-193554,582838893
-172626,660974123
-155729,761298597
-133027,472631335
-105439,397100806
-78331,7163302898
-61093,4035157245
-64150,5852457285
-82570,4903380871
-95361,9725050926
-80176,4178966284
-44207,1126740426
-22140,7114877701
-22286,6200261116
-32875,6596804857
-54627,9432458878
-76624,5610401928
-82778,5791242421
-75759,1644980907
-64677,6813284159
-56344,9601442814
-54134,6966619492
-51401,866240561
-40086,5265493393
-30671,5840243101
-35039,1249201298
-38205,4935315251
-23756,6479083151
-9562,56114602089
-11360,0790649652
-13428,8252946138
-13169,8683770299
-24478,1469746381
-35481,6505657434
-31136,1260917187
-22573,6745826006
-17834,4450496435
-11145,0755407214
-2160,9900290966
-1711,94013476372
-15536,787963748
-29318,9076222181
-27504,1021162188
-12899,1410447955
1715,16009044647
9555,72702419758
11290,5408654809
5159,60079517215
-4424,32274031639
-6302,0756354928
-3434,29520469904
-5948,05716753006
-10793,3272239566
-7415,98348388076
4196,41446334124
12855,5416716337
11803,5478812456
8058,73361510038
16004,7021552324
34568,2616305351
46059,8924543262
45366,6935673058
40040,8049099967
34403,9009015858
31080,2131459117
34864,8225728869
46757,7507167459
57300,9103106484
57219,5408616364
50918,4448368251
49680,6243305206
58146,8899101913
71899,5536222681
83414,348117888
86308,2652145028
80806,5728585124
80402,2865505219
93228,8143508099
112737,072967917
130709,332485616
137326,798323572
127275,804058666
108389,286928698
99240,0221884251
105863,746496916
116185,037977517
127484,013806588
136204,065540239
135905,597987652
137185,160996437
146147,654388085
153214,354938932
160930,841371268
179248,291552246
196955,747438073
198073,605279773
187893,646093596
178585,362031341
175140,093696445
182577,282506704
200571,823877126
216214,184851937
220378,491199672
221176,153130352
222181,04702127
218042,283576488
214952,294714004
217218,791090474
218523,65787375
216278,738236129
213513,931675792
211564,572329141
212231,808470756
221586,827881396
234230,317882895
233114,038816333
215726,523146808
194608,798891217
184609,405156195
192140,86228317
202947,670802474
195235,973954886
162996,905542642
126036,664617598
110303,469351828
113350,528269351
114794,112726361
106467,140146181
91692,1824288964
76730,678348124
65115,3240298033
50986,3439071774
29468,855030939
9667,7282191515
-2899,18598163128
-9186,02862459421
-9262,35641124845
-13567,461314261
-28582,1517413855
-50817,5397917032
-75293,6123428941
-92040,5369463861
-88948,2470515035
-66363,1492108703
-49596,6856729984
-59423,4857683182
-81223,8025769591
-89880,538909914
-83095,7119240463
-71367,6001811028
-61659,7186197042
-65558,5238672793
-82359,6262538657
-94745,1055844128
-102349,796955645
-115115,280474961
-124173,608889341
-120081,161364196
-115436,513392448
-114847,437279344
-111637,898117661
-108256,05847162
-100534,397349462
-86612,986346513
-78941,5291261673
-78755,9297441244
-79553,8080270886
-87069,051342532
-105677,538888812
-123601,063750684
-117796,957036376
-83771,7765424252
-53378,3496803641
-46930,8300244808
-49066,4247313738
-49841,8031341434
-47883,1732536554
-35450,4754071236
-17054,614563629
-12501,2312479019
-30092,641633749
-54953,2689805627
-73084,1476154923
-78366,9057290927
-68292,8170351386
-52241,6799248457
-38020,8677015901
-27133,0952916741
-19091,0442028344
-11311,0361344218
-7801,64358073473
-12671,8984392881
-24650,1798378229
-37335,3477547467
-41381,865050137
-37076,6284781098
-35776,0551448166
-43213,4954095334
-49486,9036854655
-41846,4154786468
-22374,1557052135
-8905,50030389428
-14005,2664974593
-33979,8343448341
-45923,7023935616
-34024,2835917473
-17120,7913895398
-14366,1568504795
-27720,1303799748
-44071,1154305637
-45949,2048165798
-35047,8303730339
-17340,3042809069
2326,06408703327
11490,9689227939
7448,5821954906
-477,728780686855
-6431,1552207619
-8321,27353602648
-2540,74922174215
7848,40771469474
14016,157536909
13386,2661461383
5498,81519263983
-5615,18687587976
-9229,24150177836
-7899,59151490033
-11973,0614703894
-15463,0316208005
-11146,0593745112
-4300,57130002975
-6787,20391482115
-24100,6964635551
-35026,4782223105
-22126,7565625906
-3929,04818183184
-460,615772388875
-5285,48369219899
-6892,47413122654
-5769,87305670977
-4666,65101745725
-3161,21813560277
-732,990380913019
-1123,06996291876
-9233,82298970222
-14161,6136306822
-6586,56968326308
2802,8953115344
8162,77928769588
5924,654073596
-1425,8884190917
676,180649486138
8956,11709535122
11968,1280787587
13420,5071267486
13221,1009482145
8902,6767532602
7984,02274268866
9092,16908955574
11768,3595617414
21614,5053197145
28026,2666760609
20283,8908205628
9443,74256896973
4907,22735756636
-694,214787423611
-8768,33671224117
-15544,6275917888
-25148,0207896233
-33084,4038225412
-26459,5822677016
-15121,2351523787
-16152,0090451539
-18074,3771691918
-7615,85118019581
3984,86018526554
8907,74358986318
10344,8350244761
4659,89011818171
-8517,73267477751
-22385,0108383298
-26725,6536106765
-17484,0189474225
-5041,14822363853
-2759,50853735209
-12793,1561117768
-21242,1590978503
-19246,4597591609
-13047,2419778109
-12220,3072763085
-14770,3976426125
-7817,1589243263
-1900,48001931608
-15204,6111351848
-30242,871796906
-27425,4376248717
-12816,0080637038
1728,60244680941
9195,51407188177
9454,54727989435
3072,45563498139
-11454,5097687095
-26746,3007564843
-32534,545550406
-31139,0934412479
-27310,5331836939
-23338,1686551161
-26265,9559533298
-33174,6782839894
-31238,3529627323
-22764,3456272483
-16307,9944612011
-3826,09353759885
11634,9246890247
10564,7307293713
672,184985756874
-783,703893661499
429,254558891058
-1289,21557456255
255,879046082497
3175,73808342218
-190,325173765421
-4087,46543580294
2365,14025914669
17294,7124295831
32577,7653692365
41484,6311846599
41210,8096117377
46044,6454713941
64879,1816055477
73074,1684017926
60001,2754885033
52882,2211797684
58534,017239213
55083,2113980055
41191,1402465105
37439,3241591528
43799,9218512475
45060,3343855739
43281,5466281772
41821,7356342971
34263,6848472953
24631,1012528092
23344,3630046546
24888,3871404529
15510,9705153108
-3532,45314334333
-17449,7121266425
-22616,2583267391
-27653,1521812081
-31678,7445627451
-30536,5728269815
-27776,1889169812
-25341,1439772844
-23714,1187247038
-29921,7037311792
-45633,0716452301
-60299,0407038871
-69218,4398964942
-78131,4126244187
-80680,2383996844
-61969,2924765944
-32399,9231486022
-18601,9520927668
-26561,4842378497
-39618,3274928927
-40125,6863077879
-28001,8912412673
-20602,6447407007
-27166,4637979865
-43517,9552882314
-66344,2330796123
-86966,950648427
-92140,3071156181
-80393,7911632359
-60920,1662689447
-44284,972420007
-38741,0675189495
-44966,0572455041
-39542,0987276435
1315,74784803391
54531,2146143317
86561,7451199442
104075,034653077
138674,481363669
205541,277951092
294866,282080919
381941,476338208
434472,309780344
446799,001606643
436340,483299345
405047,047873795
348325,550536424
272585,040028781
180572,361823827
68962,4969981387
-50468,0589994788
-153221,125510335
-228309,35772419
-281483,879095554
-313429,34724775
-322950,214137871
-319293,259274647
-300889,970263124
-261239,321177632
-217025,71312616
-185403,469747141
-161350,608580559
-141671,005257517
-132442,331804425
-124472,477827892
-108608,33191512
-95503,8676268905
-91795,2360383868
-91729,2606542706
-87792,2497423887
-79660,9130783547
-76897,4097912312
-81911,087480396
-85316,9502872229
-85587,8910131752
-86341,732728377
-83612,7508131415
-73447,797624588
-61749,4675557017
-64796,814171344
-85208,7356057391
-102463,364515573
-103073,790952265
-85331,6973475218
-57720,1576861143
-43669,2720765322
-50819,3341841549
-63351,4021830559
-70911,5949393511
-70484,1031541526
-58486,4050510079
-43180,6793458164
-41331,4871054888
-51302,7727995515
-54764,4371224642
-47701,1300879195
-44308,8850670159
-47185,9732638597
-46078,5947212577
-42611,5629821122
-38724,6558702104
-30288,5928355157
-24142,5309898257
-25553,0568422079
-28389,9197899103
-29970,15652835
-33354,7643880546
-39318,6868860126
-42133,2366512418
-33911,2919298708
-13728,2513634134
7448,72652047873
11061,8888118863
-5594,6356125474
-19502,4509720206
-15865,1610474885
-4046,82126814127
893,818686544895
-9123,01942664385
-25366,7776995301
-27759,9594462998
-11724,6550520957
1125,30525648594
-120,931563079357
-3046,71917077899
-1692,51487965509
5478,0806375742
17813,8321301341
24991,9664734006
18548,988308847
5063,52101200819
-2676,55219191313
-8121,51674318314
-14889,452839613
-6622,57282119989
17767,7892073691
37039,711307317
51495,7269383669
69964,5866241455
79636,920558393
71946,6882546842
62510,1241037101
71017,3921206594
89280,3579041958
92120,1533798575
78331,5114437938
63730,2765907645
56129,5755568743
58745,6255913973
70844,0599657893
81953,5721552968
84006,5130236372
81942,6832038164
84418,0690044165
97436,8095290065
120358,464278132
141208,056184679
147715,581797659
143320,627259731
139381,475785375
143737,587429821
158462,530729331
169961,15635556
164475,981407225
152362,092223763
150051,526875108
153050,598978221
150478,276151955
145293,435913801
141748,46012646
143373,911092699
155201,90855819
166535,907340407
165127,860791028
159052,131140471
159542,459620595
163710,452981293
158050,359514236
133116,637968421
99461,7609913349
84601,4730234444
94326,1951642036
98260,7673490047
80952,3183609843
56758,4776079655
36717,499618724
28053,6470621824
32796,1223825514
39887,2904192209
41304,8673656583
35919,5774518996
22363,8803825751
-397,648828953505
-28508,655370146
-52704,0612955093
-69288,0899135768
-82137,4493059488
-94300,7622411847
-105354,811573803
-112425,235497102
-112117,107471179
-103902,282340989
-94133,480117023
-97095,7927419841
-116136,444304869
-130526,409520913
-128966,766567268
-125022,34535784
-128169,76254071
-135928,108327936
-143906,077682063
-151465,714517049
-155531,280365281
-153142,206129164
-149565,994861595
-145971,15328896
-140406,353098257
-137216,785926126
-137200,577386472
-135013,116404631
-133612,656107944
-140422,934565991
-150251,694490448
-152446,389052168
-149352,181745037
-147435,126669046
-141277,415103972
-128855,110709831
-124203,086839005
-129136,386772074
-127890,985100228
-122014,395778149
-118985,635620087
-109204,53682372
-89685,4772126079
-76028,6988165323
-78664,7241002023
-90061,5951384306
-100814,975358397
-107622,157951772
-108150,461607113
-102055,369357407
-92133,6025972366
-82062,8409631848
-74135,9495780766
-70241,6117599718
-72828,0003654957
-80974,3716644645
-86406,474801898
-79941,5930373669
-70522,4447089359
-75053,9291145205
-86108,5623220801
-86679,06283319
-76942,7456573248
-66691,8784915619
-58989,5133008361
-46798,1178697944
-32908,7496735454
-29300,7819086909
-31884,5531983189
-36025,4511432052
-45667,7597699761
-53172,3302702904
-50155,2959810495
-42010,0410946831
-42408,2562065125
-53633,2829632163
-60188,0888136029
-59086,2363994718
-53559,2156700939
-34030,6458421946
-11455,2267237306
-12842,7796819806
-37277,0837427378
-54880,0721505508
-46716,362570107
-31380,3684082627
-27349,7700957656
-22929,8393594027
-9790,7398808971
-616,502834677696
-6365,89005625248
-19088,2045261264
-18775,7083544135
-307,67782399524
13625,5275977254
3402,43784332275
-17243,9163896441
-24820,4362334609
-20032,0329725631
-13483,5115534067
-8386,15301126242
-6812,23381668329
-9155,97027474642
-14142,969348859
-18681,2591319084
-16975,48123312
-10956,9098883867
-5715,68576797843
-1880,2706307359
-1753,55964636803
-3987,66155612469
-5554,23751229048
-546,915392518044
15130,7992408024
27211,4495036602
22363,9383510351
8574,11425632238
2948,11016052961
6461,69288858026
5054,05617839098
-2842,30084425211
-6786,25355774164
-5409,84786677361
-7085,02058766782
-11898,0053254068
-9631,30554789305
1716,3326164484
13154,1806520224
17678,0723386258
18076,3289547861
18763,9643161297
17857,6179695129
18418,8114138246
26610,5297600627
34745,0691242516
32355,0690080523
25241,2852082849
16015,8387049437
6963,57606163621
8145,57222768664
13470,3042468429
15043,5761165619
12183,1244668961
6195,59090152383
2421,49624213576
123,113883018494
-898,914845705032
4189,45262986422
15918,1561378241
23207,3211438879
19795,7463907599
19539,0295805335
25606,1135300398
24219,0054153204
19590,2208993584
24388,8333143592
29194,9295319915
24984,1911423206
16058,975617528
5461,55776974559
-2021,85926261544
-4180,55280661583
1177,49781179428
18069,7685177922
39860,6675669253
49443,7854266465
42840,1905560493
39687,1920671463
44823,7638257146
37358,4770657718
13468,3355194181
-4088,7333509326
-3633,39860856533
768,241604924202
-2210,15977555513
-7173,83753362298
-5408,45889592171
5578,38768362999
21620,3143135309
35582,898845613
43383,7524873167
44177,3111809492
36797,1811462641
18523,2369867563
-568,247542023659
920,954946257174
17993,6506600082
31901,5967499614
41162,3011423945
47545,448772788
51006,4182298332
58175,1692046225
73080,168115586
86077,5189031959
87015,9653176665
78234,7690072134
68284,1322109699
63724,7800213099
67560,5595294833
79753,1564621925
93302,0692424551
101054,887515187
105843,997469604
109319,511535965
110126,928021908
106993,256427407
96377,0701189637
81325,4999440312
72290,5164860804
77012,43659015
89160,8860881925
92113,5766736865
81315,8330235928
69813,2114857212
63898,1762965024
53412,6061574817
38284,0761771798
27707,7370292842
22803,1610825881
19349,9304517806
3464,60010784864
-22505,6207064986
-28393,5208757222
-9081,41010914184
10004,4231428802
17189,6595190763
16071,4593042135
9354,40526992083
6643,10053011775
18430,2461544573
31182,2544365525
20868,9104803801
-9944,14088737965
-33167,9665448666
-29914,7050355077
-6294,73917520046
16268,917573452
19486,706117332
5536,09705361724
-6212,43971920013
-6798,42374509573
-7089,72523641586
-5153,46705627441
12002,1566812694
34221,3297491372
37169,1970717907
18439,3542585373
5305,78070950508
17730,9779305458
44200,0722831488
72462,3991094828
112835,824739695
169728,511288404
233357,997276336
301755,789729506
369029,276437163
419824,998252988
452322,030342102
480712,43944484
503393,341361724
493789,317676127
439867,105269015
352560,053525686
243378,313396797
125131,905343592
13183,6284165382
-82857,2765135765
-164446,157324493
-231250,8703181
-273021,936713159
-289096,804459333
-285228,866963387
-261264,017310381
-221559,538846944
-181358,653469205
-153861,449312806
-133485,469399095
-109093,378281653
-83810,46346852
-64553,3899871707
-52435,9736036062
-49873,0125752687
-51077,3922356963
-44246,5910506286
-34029,7421110868
-29732,2372801304
-31356,4373770952
-36592,8566995263
-36294,1874523759
-25080,7419576049
-19289,9175527096
-30066,6444605589
-40218,8258039355
-43727,8510544449
-51464,1798087955
-50488,5534906387
-35142,7598606348
-24217,9727813005
-21284,9547482729
-16466,3215933144
-8595,71545577049
-3359,00971603394
-6233,95760887861
-18279,0198573172
-26793,6062965989
-22726,9257490039
-16898,1469025612
-17772,9803143144
-24795,9695857465
-39708,9026743621
-56725,8178180456
-61983,3779175282
-52362,6308010817
-36630,8455901146
-22118,7391246185
-11678,8248354197
-7264,68007659912
-6331,39991486073
-7401,30890333652
-13109,1217436492
-20745,0204289854
-23485,553635478
-19063,8869947195
-13494,9274730682
-10226,6520752609
-7165,29685080051
-6319,893460989
-8532,48388504982
-3063,22353339195
11403,6408109665
15407,5239046067
1664,6963249445
-15037,1649526358
-19749,4387013912
-11909,6741787195
-1861,72460870445
-2878,16375774145
-11211,7211911678
-8318,98023819923
-279,535402297974
1515,70546446927
9738,19550335407
24468,0642515421
28092,9464532137
22053,3370361924
21609,3565447889
26771,5367355347
25088,7026296854
20276,4657498598
23642,3517884016
28815,2583009712
28483,3487046957
28530,6639516354
32140,2749334574
32269,0221233368
31736,1347774938
36599,7650857568
40429,7697376609
42100,9426696301
47460,476955533
61117,3536742851
83442,7824226618
100628,239545584
99157,1933775544
94467,2579981089
104005,003692331
113563,604326695
110363,916763961
109873,763641417
126175,68491751
148958,819974855
164397,061699867
164836,548395634
148408,752675831
133750,958398312
133643,511142202
135105,736912757
132133,587949514
132703,093586981
137287,938774586
139119,147810332
136719,512641653
134509,136614144
136939,211095423
148505,00336653
166742,088721162
173752,633836895
164292,147321641
155384,99522382
153466,596496761
147879,790765971
126071,557812378
94810,3891837001
76146,9404472113
73253,5569787025
75467,7211346924
78513,4811211973
81603,162635982
76860,5722204447
55859,8999925852
31219,3227741122
17454,1420109458
8895,98814368248
-1938,85967594385
-13072,3916648626
-20458,9193192422
-29071,5015649721
-47607,1141133308
-70679,8557695746
-88631,3721792698
-103693,116584539
-119200,65516609
-125090,926454365
-112295,205172896
-98395,7235598564
-109216,174319953
-139778,161812544
-162103,966324687
-165607,803147733
-160467,341699123
-154128,976362631
-152888,434102505
-160274,627497137
-166043,441164792
-161829,356010854
-159103,533984572
-171717,348411366
-187429,768177509
-187737,985899806
-174481,407757312
-158945,648752492
-152817,882047266
-158096,405653208
-169092,852332652
-178669,55134654
-181143,043616397
-183108,911814615
-183079,49928768
-165865,17295333
-142059,709509589
-135833,507928357
-141343,717835873
-144029,836388543
-145908,09376714
-152947,762899011
-161892,213769108
-161226,209626332
-151463,039204562
-141973,9618624
-139152,785411358
-145910,498906136
-150660,964946955
-144833,927852936
-134894,051259659
-124023,328474969
-114208,70449847
-107373,178936005
-106073,387220871
-116966,839529544
-133387,113235384
-137406,345797539
-125773,088715345
-109414,281209946
-100320,574998483
-103482,14936775
-109608,719250172
-113869,891579062
-117437,249685481
-111617,381857723
-101984,128110707
-105522,502453446
-113228,17930305
-109831,697811723
-98737,813613791
-85830,882769078
-76220,9656268358
-77308,3569837809
-87281,6243851483
-93382,6119961478
-91537,0849164128
-90467,334035337
-93858,8690220714
-98814,0552249551
-104435,541661441
-109801,814783812
-111239,481660247
-104011,508986712
-87544,176291585
-67787,7463496923
-52463,2190029062
-48502,4461441934
-55748,8948194683
-64452,6119204164
-63323,5268292427
-53144,6218373701
-46520,544308126
-46950,2865576446
-50991,0845292807
-52914,8521603048
-47461,87813811
-48470,1484728605
-67346,6839506924
-86912,5199190676
-91203,0530794561
-80041,3144011199
-58272,7426224537
-45365,9117838442
-53512,4611316621
-64719,906019032
-58893,1707826257
-40303,9899373483
-26609,1474502832
-24264,0142514408
-28365,0800590217
-34982,8362757266
-44165,5059814695
-55463,5596151054
-64075,4630344808
-65907,13052845
-62195,5431726873
-55574,7872008383
-48889,9425732493
-41184,0342120826
-29126,0426035821
-15890,0028223246
-3746,18248842657
6800,86978426576
12544,8749411106
11879,8934821188
3048,3783724606
-8086,97958406806
-11348,7302233577
-10353,8140825629
-13337,5392666757
-20069,2358423322
-30681,6276859641
-38570,7693411112
-31245,1631190777
-18681,0534569025
-16732,6247073002
-21178,5691456199
-18638,2176656723
-445,827876091003
21086,1775780618
24787,0426176786
13582,2981158495
2966,92312765121
-1175,73903316259
48,1851105690002
1730,26797021925
4433,73308610916
8768,33098906279
8283,04417729378
6340,34557899833
9268,14825767279
9591,97003722191
76,3059096336365
-10833,2197495103
-10470,4578329921
-2538,33315682411
-943,604686439037
-7733,45853877068
-11325,6898379326
-7895,7882283628
-3594,02975809574
1009,04844659567
-686,391294598579
-8978,63208425045
-1620,96818974614
26586,1256178617
46271,3875430822
37998,9430558681
15963,1119664907
3163,31530794501
7686,78354713321
17428,8257170916
23318,1547548771
25889,7350279093
19561,7075026035
3943,74920672178
-5795,46917879581
264,025105118752
10535,6867756844
11482,4678139389
10229,686100591
20564,8678780794
38227,4550161362
50693,9416893721
55804,8163533211
55591,2938739434
49993,6056307256
44136,1269114017
42031,1903086305
41676,7263838053
44054,0142156929
51565,0628015995
60233,5106213689
64705,1491437554
66318,5668892264
70211,7414146066
77444,8763025254
85660,7251206636
92656,9421168566
91975,8663890958
88710,3686024547
97147,0086952001
112472,610966802
121354,465655684
120435,219960868
112624,40562138
104345,969252184
102280,73074466
105096,350238383
107088,139065802
105560,780828044
98767,0473007858
87007,2480747104
73377,22527951
63215,4103835225
60796,3605329171
62216,1882305741
62723,5011718273
62159,2297810018
57691,8152439296
46742,9620569795
30985,5911902785
12961,3557756543
826,49710431695
4096,09141039848
15762,658197403
25256,1151707172
34280,480735302
41022,6636479497
45676,6334835775
57012,7994906008
73506,5287209749
76036,768795073
55229,8812722266
36327,6678603683
37724,890250057
43800,0209091902
40999,4328333735
30804,6610441804
17492,5938868374
6180,73509842157
2152,7099250555
10895,8718420267
26313,0186893642
33991,8654165715
37925,6882632971
46549,1411367059
55332,7665679455
65264,9111218452
86377,4232648611
114399,894043326
136497,223963678
164910,973951399
218466,978345424
291073,438131571
366613,28044194
431371,071062088
475736,414793998
504120,119437888
519965,233953118
509361,620118201
463788,062321901
392709,079085886
307485,577990532
207885,299004793
91880,6604670882
-28373,7962939143
-131653,240314424
-200767,196842492
-237105,403217316
-250838,743429288
-239475,621771723
-210504,212082088
-181092,817336321
-152828,68126294
-125153,021654587
-97710,6609154344
-68602,9168424308
-45173,9950634837
-35523,8304003775
-34934,8735363483
-28277,3500849567
-5805,07881397009
22975,9533240795
37866,3597428799
35812,2175287306
28220,0924520493
19445,1243567318
11953,7607449889
8945,2493751049
10654,7355563343
12464,4510601014
5073,93962929398
-8899,82747796178
-10558,0565615296
2793,25733804703
9635,22776526213
2881,45636006072
-2113,93436482549
7814,88421839476
27102,1634540856
34234,5546238571
19839,2972508296
2800,47693923116
1694,54515692592
10491,5415744483
18641,2054933608
25403,7684952021
32160,5183886886
35382,1483666897
28685,5757349879
16692,1761954119
8752,78591012955
6073,09591394663
8592,77706417441
17354,8062364906
28877,7601188868
38617,3943927586
45318,3099588454
46098,5170773566
39671,9711588919
32841,8188692927
30229,8422330022
30309,9832558334
32243,0772434548
35617,572118178
39983,9492323995
46517,8133076727
57550,2075266242
63012,0409923047
53830,3194425851
46288,4751932025
52303,4297606349
64088,819473058
68400,6654205024
58234,0815414041
41119,6141247749
25237,1496501565
19517,4988746643
32751,4378211796
56725,8693422526
71823,1954882145
69776,786185205
62331,3965957165
57384,6993558705
50993,0209609754
48353,4977265
63395,1948392987
86426,8306707144
89680,0290937722
77901,5868452117
73696,8762368262
80251,7643215656
86888,4229537249
88383,5372117162
91616,7642513216
95552,7737029493
93281,5640138388
86385,7433607578
80755,0954465866
82762,5649477392
98222,0610647053
122827,58816123
138617,964226246
136358,575158417
126428,803705126
121534,65217467
124906,99826926
132817,476191878
138514,44568187
134875,568950266
127620,794677898
130602,036560625
145500,011450589
171392,337265849
197746,023455441
204887,064865112
195498,741424542
183282,199774459
174946,795684427
170490,679320097
167415,864947602
166584,314180701
166480,279505908
164781,790142506
160911,743363261
159542,78823936
166311,757541254
173290,351989182
176526,737543628
178703,521385923
169784,694413722
150139,41271143
137303,930384606
135072,475910291
129867,757946938
115161,253440112
93943,6697636545
69890,3155144677
50897,9236876518
39267,313563481
29604,4511574805
17447,0293251779
331,485221609473
-21975,443931371
-44686,8271918818
-54913,5151724815
-45701,9035149813
-31913,0797660649
-32486,8050971031
-46874,496812284
-64356,9275980741
-85991,8727076054
-117060,842253029
-143109,289319199
-147651,277438566
-140254,620951921
-141598,696248144
-155003,618745387
-163127,054692879
-150926,776393469
-128734,278686434
-120684,372799248
-127862,263388753
-133204,916877225
-138949,367742643
-159628,423156232
-185431,660767674
-195429,633018374
-192619,171783894
-189698,349975988
-188948,349074408
-189291,696389109
-186030,38940841
-170601,09964323
-144052,810570182
-119013,319643959
-116118,635464489
-143324,673100084
-173214,781537592
-181851,804860719
-177822,081882591
-172313,724346876
-163714,249115057
-150642,162161075
-141208,007850751
-143317,400221631
-148693,962999165
-141958,162897557
-126215,711641423
-116465,804876871
-119181,915649772
-129813,05113034
-140087,878584094
-151802,821993869
-163340,07285437
-162640,273433089
-150774,602239192
-135618,074887216
-123952,945041411
-128963,989578217
-147358,801914454
-149964,211061925
-126648,967291713
-105497,918066517
-107018,781693399
-123723,492885947
-137783,242000163
-131769,81567356
-108146,113713562
-90716,1501784474
-95953,3536940217
-115253,348992109
-126808,785868198
-122866,816076085
-115478,053561866
-116525,737466574
-120106,363907278
-113330,396135032
-99615,2373123765
-89711,5227349401
-86886,6726359725
-91670,6031417847
-96096,228089273
-90134,5684713125
-81102,5781121254
-79852,0469476581
-84501,0904746056
-90660,9934797883
-100291,082910568
-111624,668426186
-115515,867628098
-108577,842962384
-97906,4278712869
-97446,9767025113
-108856,172120005
-114396,485652804
-104658,191898465
-87389,6851296425
-73983,3831662536
-74311,3624443635
-84754,1089673042
-89904,6695870161
-77261,9038621187
-49920,2962058783
-36631,7715994325
-53022,9977058768
-76380,5786544085
-81637,6289048195
-66578,0110282898
-48859,923131153
-43407,172460556
-46129,8134232759
-50607,271348834
-56523,8612600565
-58536,8482952267
-54282,2803795338
-56187,5476797819
-66524,7470138073
-70626,5506635904
-65866,5055667758
-57095,6355346739
-48986,7491586208
-47377,7900949717
-50689,4976309538
-55611,9916937053
-57858,0847147405
-53838,8816564083
-47915,9974634647
-44712,1301802397
-42279,0872325897
-37999,7527597547
-36535,433500886
-41916,0100418329
-45929,2150177956
-39318,0502512455
-28188,1890127361
-24113,074804306
-27106,2024409771
-32286,9463392496
-41108,419573307
-51951,3489016294
-54891,1742755175
-46848,1945681572
-31898,4570990205
-14676,5960043967
-5813,13448694348
-12858,4438787699
-24882,4682971239
-21721,7744156718
-1797,93214869499
13749,1324894428
8592,85268771648
-12240,6063853502
-30919,8257939816
-33879,4510278255
-24465,791690886
-12813,3001357317
709,063160181046
10173,6569472551
4957,4884352237
-3179,81813186407
648,933189868927
7065,5291851759
5849,77878761292
4439,16665551066
12153,8722752333
23078,2174996138
19071,3409048915
2609,7461361289
-5301,11341944337
-248,062896370888
9592,57516300678
17454,4168086648
19157,8508483171
18117,0411848947
20187,5458103418
22502,3884364963
21084,1669572592
19257,6167770624
21919,790709272
25366,0730116963
22997,9927203059
17237,1553612351
19669,2951339781
35331,3728517294
47994,7446143627
44746,7000608444
34518,0935792327
31683,7723462284
38554,8267629296
49582,4063629508
64527,9962642193
74390,2706668377
66422,7791863978
52273,6702585071
48947,52034536
51664,8559839129
51605,6279660463
50184,0053389966
47930,4703347608
43310,4368262887
37022,3833985329
32223,8752360344
31000,487557739
27422,3494037073
15403,5655508935
-200,770463764668
-11344,2252766788
-15928,8189840019
-17396,1403554101
-22002,7470999062
-24997,1249883771
-18015,629858613
-13346,3283426017
-22818,2486857176
-32439,8987897336
-28360,4523415864
-20494,9945057333
-20073,8936761767
-24821,2699409798
-26808,8131042123
-24378,2773171961
-27302,4645554721
-30766,7288431451
-17913,3952849805
4469,53051280975
23049,2692387104
38578,2731125951
45491,4858826976
36050,7080322504
16975,4400745034
3628,03808277845
-1521,80614608526
-11097,4657361954
-26943,8662852049
-40339,730850935
-44399,5200003386
-33347,3772271276
-10213,791822046
19530,6603556573
57495,6460642815
99780,5978350043
141513,762253761
185964,441209674
236804,215549111
296788,260804176
361195,995434344
413352,18802765
443009,966660246
450465,573752582
432395,365989447
390423,771413803
338447,920196116
277367,107280642
198631,420545034
98902,7504754663
-19690,1481736898
-132105,59463793
-210828,873141408
-253355,172977343
-270652,959853768
-269964,09857735
-253412,120029002
-224545,442563951
-186386,34098354
-143865,486519411
-108377,313149214
-93318,9384175539
-92785,7675267458
-83643,41808559
-63482,3935480416
-47918,3870503791
-37089,826643154
-23630,1334647089
-15868,3813183978
-21174,4966432238
-28924,9335443601
-22295,1201387718
-1055,04816497862
13632,404387936
10028,4183398858
-4206,08869632334
-17212,5553473383
-21713,0224931426
-20807,8467060477
-15104,2837025672
-4606,55418848991
7618,30528306216
22961,840507634
29751,7389981747
14952,4606182575
-3147,50131344795
-1943,1804343909
10325,2797773406
19791,2425867915
24921,0596086979
26348,5613778234
28815,903565824
37109,9519474208
43380,9317257106
35329,8433147073
21256,3846164346
19947,5529889464
27375,9515106864
27551,1259973347
15642,4262341261
1119,04192394018
-981,756424188614
14974,5529512018
40609,5174991786
61410,8625754118
68888,8242442608
62723,6707406044
50692,3560523689
40963,1329263151
39194,266256094
46360,3580796719
51269,1764060259
47434,8259171247
42798,3696893454
43237,8664497137
44221,3431409597
41433,1182062626
38344,7314413488
40377,099390924
48847,1634438038
62772,4427523613
75681,8304378986
76979,2188899517
67526,7950330079
61547,7049626112
65545,3759566545
72036,1718953848
75334,0639086366
77250,7533073425
82373,4714071155
86447,5120662451
83007,4037433863
76907,9096286893
74767,9063644856
84666,290651083
101824,670355678
109169,531377196
110746,413687468
115371,342380673
116317,384509563
108499,207180381
99828,0679662824
99289,5620405674
102120,207004905
104449,464349687
110890,274726987
123871,884780109
142153,008068979
154141,754430093
147953,081084669
136865,005992532
141975,34081912
156691,691767275
162518,413234739
161477,355193913
165920,505614579
176113,337269902
189454,713383883
207072,185240895
215328,198510483
205147,087630302
193617,572198838
194892,006662443
205950,167426433
216359,648162782
218639,94043839
212088,15773955
195510,93350029
175573,63773073
170836,288830817
186077,973732471
205674,275288001
217082,234405701
214765,217852771
193107,395186484
158838,962943196
134790,57483688
139565,389427116
166000,335705996
184000,586320519
171562,707623333
132891,616644122
91282,0399733782
69728,8162023425
71122,5860028863
74319,3008630276
58114,8110504895
30149,7502526492
10149,610573709
1134,33302366734
-7826,59838986397
-18436,4607114494
-21102,9384630919
-22180,9256007075
-34221,3558272719
-52574,7318868637
-67598,6163694859
-75936,2687048018
-78168,6378551126
-78121,1681480408
-79805,1274413466
-86061,1361594498
-99343,3987431079
-111270,780511737
-114809,649482608
-114359,119249642
-112312,804554313
-116208,567248352
-132105,563787162
-151273,512631297
-157392,583700657
-143256,70534265
-120617,84624368
-102323,701310754
-91885,0213298798
-87853,8436449766
-93389,690569818
-112506,159658939
-130445,232007205
-131702,696744084
-120033,903411388
-111433,587115407
-115474,734275162
-124548,162241608
-122786,719292641
-101522,314608335
-77486,1017956734
-72450,251529932
-81890,849424541
-85897,3075956106
-84840,6369481087
-97534,6766453981
-114097,330660045
-110606,054092167
-99294,9442710876
-100943,920140862
-107847,609847903
-107484,026058078
-100006,319493692
-88689,291988492
-76350,5749374628
-65635,5910624266
-60519,9378978014
-67959,3915159218
-89089,9567131996
-105493,416494131
-96616,7501202226
-72364,1885133386
-59016,4950156063
-61860,8406894803
-68463,4950057864
-72422,0365769267
-70177,0562340915
-62338,2984926011
-57786,0511754155
-60066,2675423026
-66748,7056034803
-72187,8459380865
-72335,194919616
-68711,7319590747
-63368,2426328361
-60246,3840251863
-63490,7169458568
-73356,8025162704
-83638,4681161791
-82104,7295274436
-64345,5011081398
-41984,1204063892
-34883,741918806
-52835,311980024
-79012,1854507625
-84478,450724721
-66861,2945541739
-52988,2127001733
-56008,0017886795
-64145,2791654915
-66701,6426109225
-62564,3845074773
-55674,3560960591
-50878,9794612182
-47847,7157868445
-44582,1796368659
-44245,3154667318
-50631,9035572261
-58187,1628245972
-57460,8120959699
-49225,9567435384
-41491,5712646842
-41652,9440681487
-49891,8392806817
-57390,4413331747
-59195,8914643228
-55054,1117098331
-44858,7305016071
-34768,3322532643
-33923,0931392461
-47756,1348496377
-68657,6363998055
-78233,3430282921
-72767,7681995481
-60917,8777751029
-42556,2577171326
-21014,3828316331
-8283,37053245306
-12068,3255802877
-29934,4147565663
-43075,1103574038
-34492,4474131465
-16143,9885551929
-21491,9727448225
-56027,9365161955
-84718,4229513407
-86077,8849418759
-65401,3547171354
-37245,6388462037
-24055,1272150576
-33348,2833346725
-45292,0767011046
-41758,8332776427
-28210,271434404
-18221,8481722772
-19462,7580048442
-35724,2117423415
-56853,0402569771
-69776,9066402763
-73413,6589187831
-66442,985601306
-49544,6287608147
-32385,6012373269
-26018,9404813647
-30240,1669688076
-36647,7235186696
-37931,0304576755
-28275,1810365915
-12923,7845357433
-7351,45025427639
-18697,5279823244
-32583,8382129669
-30768,1189987957
-20470,2531391401
-14811,8317535222
-9913,70171362162
-2219,36387249827
541,714264854789
-10065,1347021312
-26732,081204161
-33929,8848030269
-26465,9807526022
-10701,6214894187
1492,97777706385
114,366440743208
-13271,3023401797
-18388,4747734964
-2157,35893973708
20453,8573836684
34842,0914009809
41456,6033036411
44138,0596419424
43170,017454952
38984,1459893584
39520,5017855465
45691,2132313699
45115,8289360553
36464,9426262677
29072,9717409313
23140,5761913657
21143,4377203733
25282,7196909711
19908,6015384495
3041,47713688016
-2583,33817398548
3913,34016472101
2698,99521756917
-6520,4031034708
-13362,3059573174
-24210,6083844304
-45544,6473918855
-58005,330734998
-48797,3796910048
-37873,4046682119
-37063,6645208597
-38480,0876682699
-38903,3967720792
-34643,2117488384
-28466,9806235433
-31936,8233435154
-40655,0235465765
-40303,7196138203
-33046,9024640918
-35262,9587360024
-46770,1647786498
-49429,2101151347
-39868,1194166169
-32629,5434876084
-34434,3995796442
-41680,7492136955
-46904,0752363503
-40150,1994322762
-25147,6462917328
-19616,5393354297
-31829,0669596791
-49057,5067139864
-55263,6634441074
-47785,3545069098
-25807,7331890464
11332,8103876114
50900,496991992
80392,8079030812
106304,957395583
145248,556640089
206288,827758491
282151,821481586
352718,752829738
408123,513782501
449733,817686081
468581,774901986
448729,411574125
390944,608095586
319496,388222963
248237,444694638
167282,850870311
68967,6357059479
-40690,4720123112
-143627,124698579
-220906,787788719
-268326,002301633
-286365,576844245
-274358,508651197
-243816,537989616
-210310,797140777
-182056,239840031
-160214,863462597
-135783,592648789
-111117,302752435
-97044,3590086102
-87248,7170991302
-86248,0024075359
-96192,0181125104
-95566,7196784019
-79641,9651372433
-59463,7461875081
-42138,9136286676
-31341,0582464933
-26238,9779356122
-24630,8310942054
-24432,294146657
-25475,2939276993
-28738,0886976123
-30392,2725763917
-30988,4288378358
-35265,0428942442
-40411,0887522101
-45303,1565591097
-49847,3373922706
-45649,3209869862
-32079,5272139311
-22524,9196965992
-20133,2071754038
-16691,4868312478
-13444,9767127037
-13926,4423310757
-15484,3312210739
-16987,7678996623
-12714,4047535658
-1655,49623608589
1919,0848403573
-3745,3405392915
-6102,43724033237
-3697,80326908827
-2641,12934452295
-4575,23251911998
-6654,77465064824
-7400,61750355363
-6831,31671658158
-4631,89389005303
-1617,78803634644
6717,3799944967
25195,9253261238
39437,0703465194
35298,4687921703
19728,4171149433
-2296,57996816933
-22019,7328315973
-19212,6970293373
2336,14710062742
15647,2108190954
14211,4502502978
11867,1471329257
9334,18780179322
5646,95921134949
10485,1502533257
26925,6846787035
50260,1666443944
67482,6879105344
66882,6488664746
56364,3331979513
48150,9678884745
36997,422898829
18427,0356672406
9610,75225424767
22061,8764196038
44025,1016679406
63127,9954825938
71006,6873984933
63588,3254569173
51534,8614963889
47169,5295562744
56800,5760815144
80833,464021273
102925,133531749
106784,470074952
95712,6577621102
85151,4765850902
85598,7702719569
88792,1179676056
90393,9107475877
97435,3558574319
102835,339447111
101206,064390644
100368,856450558
104482,951832414
116212,517419457
134316,666670203
150537,678745598
158271,411554158
154814,358326793
150891,759175956
165181,005750805
190585,445951954
197869,05084753
184286,640743017
171509,578527927
165742,74878037
164146,912921548
167255,390671194
174265,217850387
180534,14647001
180904,907586098
181218,28976047
186448,102779806
190125,46892184
192082,519990325
196192,963624984
198929,788285583
193460,24470067
176249,413861752
159273,151730895
154930,483469076
151629,456712693
138734,036272228
125662,502276182
120560,963746578
120242,412711115
118965,860813707
114853,060807467
109607,160375178
99929,5073918402
84578,6901775524
75115,7340882123
66888,9668847024
42977,9772509634
11921,9963600934
-13186,1547337025
-36189,4882676601
-57326,3520509899
-68550,633769393
-69123,6686533988
-66662,7634734064
-64798,4458177686
-64866,5078890622
-70814,5587365776
-81497,1382262651
-95113,5082713068
-110848,289093733
-122983,877924055
-129008,698867574
-132980,389366582
-139923,461346239
-145527,804538131
-141904,647197306
-132427,405964464
-124823,903054964
-120364,564114332
-115742,327533245
-108590,455574244
-99460,8271877766
-95786,4668927789
-106241,771767333
-124134,901338845
-131289,095157266
-125056,527891815
-117037,261335343
-114374,380089978
-114968,740161583
-113717,33700043
-110607,75565128
-101184,044584528
-85855,7161825374
-79210,6634567827
-90248,9185169041
-109592,35344848
-117059,922064006
-109481,061595112
-100441,959568329
-91244,3904621601
-81392,5754578412
-83481,3543297648
-98346,6486986578
-108297,440159753
-105681,618323117
-97006,7033894062
-83884,3482617736
-71663,7888011038
-74330,2944867238
-88350,8912187815
-96301,5247106552
-93133,7487607002
-82935,0123612285
-75436,0053950585
-81672,8146419227
-89411,9200227857
-80485,7237014771
-60973,231741488
-44610,9340964854
-42143,3538026512
-55007,566444397
-67763,9764947891
-66777,5350820422
-56513,5933485553
-51831,7065674663
-55516,911457479
-55067,0146286488
-49706,3682597876
-52027,500379283
-58579,0508802533
-57595,4483993053
-50213,352244556
-41732,5918898582
-36966,612849762
-40274,0803534985
-44724,0704222322
-36891,4828838706
-27334,6360418797
-35769,0657082854
-54544,466899097
-62745,08223176
-49297,0195362568
-27884,8030415475
-22135,4296026118
-32310,1262222528
-42212,643361032
-41022,8785589337
-35818,6611285508
-39541,9792455547
-41776,2958045304
-32391,9572084546
-26204,2400269508
-32809,1049363613
-42957,443483606
-46666,1012749672
-44557,2336249352
-43182,5492672324
-48300,1016076803
-56212,9408763722
-53162,4890901148
-37555,6804298759
-24105,8202998042
-18717,52559793
-15329,1821993291
-11852,1643913388
-9107,48662549257
-4059,64512696862
1837,67893779278
-919,750122249126
-12594,303524673
-22647,3679637909
-28403,6268225014
-33344,3021455258
-31586,4110751748
-17678,6031027436
-3910,97848391533
-4592,7353156209
-12405,7115108408
-11234,4652804732
-3700,49082010984
1991,93959033489
4164,39011096954
-556,655394876376
-8081,0573695004
-10133,9931709766
-4032,77945691347
6533,80045378208
11602,457834743
4626,00070342422
-4669,09143733978
-4060,53831571341
379,286922723055
2602,68789875507
-116,486334741116
-11601,7388874888
-19709,5152689815
-15245,0409991145
-9532,90223614872
-11071,7478742003
-15454,5286636949
-12127,6641613245
-1994,16315579414
-431,717829525471
-6333,72792311013
-13052,4880766273
-18618,6831047535
-15717,026345849
-9648,83934563398
-9485,44980998337
-10354,5741368532
-4327,80217969418
8564,84047216177
15378,7539994717
10473,3774814466
5002,68595802784
-2698,52379506826
