0
0
0
0
0
0
0
0
0
0
0
0
0
0
0
0
0
0
0
0
0
0
0
0
0
0
0
0
0
0
0
0
0
0
0
0
0
0
0
0
0
0
0
0
0
0
0
0
0
0
0
0
0
0
0
0
0
0
0
0
0
0
0
0
0
0
0
0
0
0
0
0
0
0
0
0
0
0
0
0
0
0
0
0
0
0
0
0
0
0
0
0
0
0
0
0
0
0
0
0
0
0
0
0
0
0
0
0
0
0
0
0
0
0
0
0
0
0
0
0
0
0
0
0
0
0
0
0
0
0
0
0
0
0
0
0
0
0
0
0
0
0
0
0
0
0
0
0
0
0
0
0
0
0
0
0
0
0
0
0
0
0
0
0
0
0
0
0
0
0
0
0
0
0
0
0
0
0
0
0
0
0
0
0
0
0
0
0
0
0
0
0
0
0
0
0
0
0
0
0
0
0
0
0
0
0
0
0
0
0
0
0
0
0
0
0
0
0
0
0
0
0
0
0
0
0
0
0
0
0
0
0
0
0
0
0
0
0
0
0
0
0
0
0
0
0
0
0
0
0
0
0
0
0
0
0
0
0
0
0
0
0
0
0
0
0
0
0
0
0
0
0
0
0
0
0
0
0
0
0
0
0
0
0
0
0
0
0
0
0
0
0
0
0
0
0
0
0
0
0
0
0
0
0
0
0
0
0
0
0
0
0
0
0
0
0
0
0
0
0
0
0
0
0
0
0
0
0
0
0
0
0
0
0
0
0
0
0
0
0
0
0
0
0
0
0
0
0
0
0
0
0
0
0
0
0
0
0
0
0
0
0
0
0
0
0
0
0
0
0
0
0
0
0
0
0
0
0
0
0
0
0
0
0
0
0
0
0
0
0
0
0
0
0
0
0
0
0
0
0
0
0
0
0
0
0
0
0
0
0
0
0
0
0
0
0
0
0
0
0
0
0
0
0
0
0
0
0
0
0
0
0
0
0
0
0
0
0
0
0
0
0
0
0
0
0
0
0
0
0
0
0
0
0
0
0
0
0
0
0
0
0
0
0
0
0
0
0
0
0
0
0
0
0
0
0
0
0
0
0
0
0
0
0
0
0
0
0
0
0
0
0
0
0
0
0
0
0
0
0
0
0
0
0
0
0
0
0
0
0
0
0
0
0
0
0
0
0
0
0
0
0
0
0
0
0
0
0
0
0
0
0
0
0
0
0
0
0
0
0
0
0
0
0
0
0
0
0
0
0
0
0
0
0
0
0
0
0
0
0
0
0
0
0
0
0
0
0
0
0
0
0
0
0
0
0
0
0
0
0
0
0
0
0
0
0
0
0
0
0
0
0
0
0
0
0
0
0
0
0
0
0
0
0
0
0
0
0
0
0
0
0
0
0
0
0
0
0
0
0
0
0
0
0
0
0
0
0
0
0
0
0
0
0
0
0
0
0
0
0
0
0
0
0
0
0
0
0
0
0
0
0
0
0
0
0
0
0
0
0
0
0
0
0
0
0
0
0
0
0
0
0
0
0
0
0
0
0
0
0
0
0
0
0
0
0
0
0
0
0
0
0
0
0
0
0
0
0
0
0
0
0
0
0
0
0
0
0
0
0
0
0
0
0
0
0
0
0
0
0
0
0
0
0
0
0
0
0
0
0
0
0
0
0
0
0
0
0
0
0
0
0
0
0
0
0
0
0
0
0
0
0
0
0
0
0
0
0
0
0
0
0
0
0
0
0
0
0
0
0
0
0
0
0
0
0
0
0
0
0
0
0
0
0
0
0
0
0
0
0
0
0
0
0
0
0
0
0
0
0
0
0
0
0
0
0
0
0
0
0
0
0
0
0
0
0
0
0
0
0
0
0
0
0
0
0
0
0
0
0
0
0
0
0
0
0
0
0
0
0
0
0
0
0
0
0
0
0
0
0
0
0
0
0
0
0
0
0
0
0
0
0
0
0
0
0
0
0
0
0
0
0
0
0
0
0
0
0
0
0
0
0
0
0
0
0
0
0
0
0
0
0
0
0
0
0
0
0
0
0
0
0
0
0
0
0
0
0
0
0
0
0
0
0
0
0
0
0
0
0
0
0
0
0
0
0
0
0
0
0
0
0
0
0
0
0
0
0
0
0
0
0
0
0
0
0
0
0
0
0
0
0
0
0
0
0
0
0
0
0
0
0
0
0
0
0
0
0
0
0
0
0
0
0
0
0
0
0
0
0
0
0
0
0
0
0
0
0
0
0
0
0
0
0
0
0
0
0
0
0
0
0
0
0
0
0
0
0
0
0
0
0
0
0
0
0
0
0
0
0
0
0
0
0
0
0
0
0
0
0
0
0
0
0
0
0
0
0
0
0
0
0
0
0
0
0
0
0
0
0
0
0
0
0
0
0
0
0
0
0
0
0
0
0
0
0
0
0
0
0
0
0
0
0
0
0
0
0
0
0
0
0
0
0
0
0
0
0
0
0
0
0
0
0
0
0
0
0
0
0
0
0
0
0
0
0
0
0
0
0
0
0
0
0
0
0
0
0
0
0
0
0
0
0
0
0
0
0
0
0
0
0
0
0
0
0
0
0
0
0
0
0
0
0
0
0
0
0
0
0
0
0
0
0
0
0
0
0
0
0
0
0
0
0
0
0
0
0
0
0
0
0
0
0
0
0
0
0
0
0
0
0
0
0
0
0
0
0
0
0
0
0
0
0
0
0
0
0
0
0
0
0
0
0
0
0
0
0
0
0
0
0
0
0
0
0
0
0
0
0
0
0
0
0
0
0
0
0
0
0
0
0
0
0
0
0
0
0
0
0
0
0
0
0
0
0
0
0
0
0
0
0
0
0
0
0
0
0
0
0
0
0
0
0
0
0
0
0
0
0
0
0
0
0
0
0
0
0
0
0
0
0
0
0
0
0
0
0
0
0
0
0
0
0
0
0
0
0
0
0
0
0
0
0
0
0
0
0
0
0
0
0
0
0
0
0
0
0
0
0
0
0
0
0
0
0
0
0
0
0
0
0
0
0
0
0
0
0
0
0
0
0
0
0
0
0
0
0
0
0
0
0
0
0
0
0
0
0
0
0
0
0
0
0
0
0
0
0
0
0
0
0
0
0
0
0
0
0
0
0
0
0
0
0
0
0
0
0
0
0
0
0
0
0
0
0
0
0
0
0
0
0
0
0
0
0
0
0
0
0
0
0
0
0
0
0
0
0
0
0
0
0
0
0
0
0
0
0
0
0
0
0
0
0
0
0
0
0
0
0
0
0
0
0
0
0
0
0
0
0
0
0
0
0
0
0
0
0
0
0
0
0
0
0
0
0
0
0
0
0
0
0
0
0
0
0
0
0
0
0
0
0
0
0
0
0
0
0
0
0
0
0
0
0
0
0
0
0
0
0
-3276,07389587164
99,5984587669373
6426,67625141889
9747,67785193026
6786,63323515654
1820,94875004888
677,890609443188
3142,36173289269
5033,88836485147
3436,16845029593
330,300963193178
-1453,00643563271
-2893,75309170783
-3784,93147872388
-3646,02933230996
-3135,50382715464
-998,919729590416
2346,58868590742
3955,93442937732
2689,97384557128
1133,39534854889
-88,2902519404888
-2731,30052128434
-4184,34740829468
-3375,42366659641
-2614,28708565235
-1530,76810652018
26,8300115317106
332,185524299741
-909,782749414444
-577,635421276093
1799,96288493276
2648,74072354287
2049,83373846114
936,839100748301
-455,664056539536
-484,712774902582
403,833893559873
29,1937561780214
-2323,99247336388
-3374,45158803463
665,623550504446
7425,9712087214
10716,8067030609
7954,44997388124
3445,72307115793
2407,38396191597
4262,07329726219
5091,60701540112
2372,53229358792
-1671,5802885294
-3149,79024624825
-2841,05867153406
-2477,00108414888
-2334,81877613068
-2414,85097360611
-939,862748235464
2055,87206167728
3603,95417153835
1855,07922047377
-673,834214866161
-1361,39658683538
-1831,95312444493
-2230,38548329473
-2213,99221247435
-2655,34855514765
-2048,64561647177
4,14055195450783
1239,66936451197
635,097019433975
290,614869832993
240,207134366035
-1643,11394364387
-2842,36037656665
-2252,93334573507
-2373,11730784178
-2541,04887211323
-1842,23587553948
-1632,94156524539
-2219,3587629199
-1459,3320941925
6,60693156719208
-923,884720802307
-1955,51838970184
-1349,46766519547
-1836,51078730822
-3173,86429324746
-3796,40849872679
-4290,85788668692
-4818,2928775847
-3153,74530559778
-4,15910756587982
1083,69039209932
1618,96519799531
2216,86250671744
669,826339006424
-1215,71527159214
-1713,92235092074
-2057,35188435018
-3446,42925998569
-4038,64313319325
-392,468887716532
6181,60639572144
9691,35127948225
6878,52737212181
1850,37530148029
428,351470798254
2676,37626489252
4572,41640751064
3166,84627386928
319,351018697023
-1357,44230550528
-3050,57304774225
-4450,60501307249
-4589,43269485235
-3866,52810430527
-1380,66365000606
2124,77098438144
3716,9939532578
2330,84116825461
603,899615585804
-686,96227028966
-3207,98555336148
-4249,55034834147
-2863,95734831691
-1973,83503752947
-1208,76991131902
79,3447319790721
262,816223159432
-812,71522384882
-105,922611832619
2013,17476055026
1954,63761319965
1009,12946690619
362,847960114479
-554,151490151882
-487,456816613674
317,300013765693
-65,3943054080009
-2289,79079073668
-3071,6816688776
1137,98537763953
7780,79690234363
11096,1745441258
8553,33374589682
4005,43375062943
2782,14291119576
4588,37126725167
5472,26842258871
2817,06955423951
-1110,9078964591
-2345,81232452393
-1772,37308602035
-1316,24381998181
-1330,30014151335
-1592,8024263978
-80,0972680151463
3098,16947227344
4756,85686081648
2956,27352970839
172,266051411629
-1272,06585258245
-2987,16555383429
-4321,64498332143
-4306,96078044176
-4027,28497219086
-2645,83180034161
-212,495013959706
1037,93054461479
368,185417532921
42,3970183730125
118,61256313324
-1361,54340697825
-2043,09761035442
-1324,56010252237
-1762,85157841444
-2427,41178014874
-2186,28675052524
-2225,46940696239
-2773,17509061098
-1753,62268620729
61,6048166751862
-512,647022537887
-1263,34700778127
-548,678923308849
-1147,66346871853
-2722,99206274748
-3508,02692088485
-4033,82887719572
-4569,85741636157
-3001,49063080549
-55,4095251560211
862,486196190119
1310,66211426258
1772,15311974287
77,6505142450333
-1813,81946977973
-2108,46805497259
-2102,56622129679
-3201,35404410958
-3811,43574404716
-434,504593342543
5897,38356342912
9062,69317360222
5913,01367628574
1079,32794752717
175,749340623617
2678,6256313473
4517,71403120458
2998,65915638208
31,6321644484997
-1749,4445117414
-3390,42571794242
-4163,59134982526
-3281,56146818399
-2406,62812030315
-733,100818634033
2064,5254316628
3539,59024558961
2448,94792419672
961,91242441535
-240,501819819212
-2596,59327530116
-3632,77089492977
-2585,99798303843
-2002,56927481294
-1339,32183298469
0,714250318706036
417,206254899502
-460,074335157871
95,5561521947384
1999,43091231585
1975,81959653646
1035,34723439813
240,580919981003
-853,936838626862
-869,351959496737
21,3903985619545
-146,842469632626
-2132,45422625542
-2899,62243011594
938,924182295799
7012,83079003543
10068,9785604179
7838,16469472647
3733,8640589118
2656,99871429801
4374,72439704835
5151,56949979067
2509,95426562428
-1259,26339417696
-2000,69201907516
-791,470436036587
-348,22796331346
-898,253009289503
-1495,51175194979
-44,3866152763367
3122,60990986601
4756,11345142126
2957,94722819328
107,844934999943
-1695,1358935833
-3788,08209573478
-4699,05804517865
-3729,81265354156
-3163,31175547838
-2232,16329351068
-253,05197545886
857,853014856577
216,466314315796
-139,043200731277
-197,717348724604
-1909,81757649034
-2839,6026288271
-2187,79375702143
-2465,0726044178
-2871,76592552662
-2343,76549032331
-2106,52849212289
-2571,40150916576
-1731,27416342497
-54,4433184862137
-554,330153234303
-1145,72800965607
-316,974689662457
-941,072041213512
-2601,90527385473
-3424,16734711081
-3906,34192816913
-4316,4891833961
-2680,52716839314
141,735607594252
762,121408633888
834,727058947086
1083,18387776613
-501,161682367325
-2239,82734516263
-2534,79797484726
-2503,0910500139
-3460,39803797007
-3906,54033148289
-298,640105992556
6427,36836263537
9898,59119075537
6708,66602176428
1590,27349719405
354,591862767935
2575,87100034952
4189,86647595465
2514,47079712152
-406,042365640402
-1803,34120509028
-3066,0849731043
-4277,8522515893
-4310,57611706853
-3489,02307268977
-1118,782238096
2152,54442407191
3607,74711121619
2285,90991264582
706,970492511988
-488,489633738995
-3009,89886773378
-4154,15635447204
-2726,41997104883
-1661,40908780694
-927,815992355347
175,79150275141
296,555671587586
-891,424678057432
-644,226215302944
1242,17101502419
1627,96434114873
1257,26240709424
887,543338775635
-95,9006684720516
-248,728125929832
452,939087815583
219,114478155971
-1788,38018575311
-2979,20264467597
402,593058556318
6656,79804073274
10286,1049026549
8504,28608864546
4166,5276619792
2465,5995503068
4028,67882570624
5256,89771749079
3458,15969571471
416,747916221619
-1683,28204673529
-3936,50266353041
-4874,46785576642
-3720,20625686646
-2869,18886327744
-1598,15548458695
857,538155980408
2365,86062797904
1198,65375548601
-637,119009137154
-393,423636555672
325,757931701839
268,055048942566
-447,113933056593
-1987,59785205126
-2185,1309517324
-267,166921697557
1289,21090677381
452,666268348694
-1005,46096944809
-536,156525850296
269,400417491794
517,796938285232
282,076465845108
-1193,07256025076
-1886,95664048195
-591,216764524579
628,3197119385
-174,490564614534
-1430,12163555622
137,270730495453
3101,15586736053
3943,08947171271
1994,69554916024
-898,285606503487
-1590,6890899837
210,579667977989
1524,85762344301
437,238945424557
-521,844464719296
1867,71391829848
5402,20645599067
5604,83410665393
1827,38924446702
-1394,15567517281
-437,682328939438
2775,707984671
4197,43187485635
1623,93319934607
-2414,08113241196
-3252,4893695116
-1197,24969696999
746,943366795778
1136,42018443346
272,39592564106
682,25533926487
2857,53340426087
3981,03010179102
2003,9347410202
-860,213523328304
-1782,75937953591
-2171,14659143239
-2360,67210686207
-1984,65430569649
-2057,18887549639
-1345,74683582783
565,658673934639
1475,84571692348
450,859228551388
-174,834945678711
-274,376437544823
-2136,28800329566
-3015,83922961354
-1762,37251889706
-1590,82807403803
-2066,11596742272
-1765,94012574852
-1736,63487060368
-2435,07438015938
-1862,3426104188
-472,701920121908
-1381,48062667251
-2374,69605393708
-1517,04740262032
-1734,66582453251
-3095,51736950874
-3870,1513582468
-4425,5520079881
-4885,55493074656
-3302,01823979616
-519,794246405363
190,180550843477
521,535065203905
1177,60912421346
-229,191980063915
-2164,96246215701
-2788,39662408084
-3093,21667963266
-4109,48379340768
-3830,57834801078
686,148290038109
7117,76175633818
9208,27949306369
5037,6197899878
192,714386582375
-326,124517351389
2118,47239179164
3505,86956988275
1894,74415656924
-300,50219553709
-1825,00693401694
-4454,06214991212
-5763,23922258615
-4184,22442963719
-2335,70936480165
-367,9632833004
1871,5615606755
2493,09148745239
706,216598957777
-832,95972636342
-996,095262497663
-2056,22730953246
-2662,1960143894
-1866,08751556277
-1530,9385997355
-878,16990596056
525,160297647119
870,191691100597
-354,393598079681
-403,472025722265
969,502948403358
859,839073255658
400,556986749172
242,252197742462
-600,008728146553
-633,766075193882
299,6961838305
334,938570439816
-1444,32317069173
-2491,80443131924
657,994788616896
6427,11185892671
9666,68037109077
7515,4997805357
3156,2551176846
1857,14015859365
3802,04468286037
5243,50262638927
3450,36533889174
236,803533583879
-1648,74484184384
-3106,17632561177
-3748,00123929977
-3145,90056067705
-2742,56728816032
-1439,04716795683
1178,57759847119
2725,03941991925
1418,38893342018
-753,532896876335
-1070,15473628044
-892,727689251304
-1007,02089738846
-1288,98102721572
-2383,96434235573
-2432,91192618012
-563,121036112309
1000,06220108271
290,267861366272
-1124,2724391222
-299,793581813574
1513,20593471825
2024,19536143541
727,33539712429
-1612,46768015623
-2283,24834579229
-673,594088084996
661,62684905529
-206,335681766272
-1284,20773202181
1167,34775185585
5949,90100070834
7519,16262458265
3694,84451940656
-641,982579112053
-689,807883262634
2212,10480669886
3904,07109005749
2065,35645723343
-504,593944430351
553,094083964825
4052,07578884065
5096,55981753767
2091,92366957664
-650,513165295124
757,823273926973
4386,0726524964
5870,89340910316
2928,03523087502
-1738,93661981821
-2825,89555844665
112,662183709443
2746,34705147147
2147,33946746588
212,254497826099
856,913576722145
3838,2834675163
5357,62941163778
2981,17796570063
-959,998095631599
-3029,44723114371
-3913,86814390123
-3885,2798396647
-3042,04383182526
-2888,97840446234
-2095,63916069269
79,6987688094378
1407,24693197012
569,356220722198
-238,424126446247
-202,054044187069
-1816,17482750118
-3297,51457709074
-2972,19666874409
-3135,9088767767
-3436,55354690552
-2850,21445076168
-2560,41179081798
-2917,53716748953
-1922,32611179352
-126,875690937042
-88,7637499123812
-98,1829141378403
210,164930105209
-1170,74766004086
-2892,1875718236
-3618,07538287342
-4158,85119844973
-4704,02852672338
-2886,81527340412
939,295237958431
2854,28762698174
2926,61827561259
1941,72071823478
-192,460606873035
-1464,83905056119
-1458,41962191463
-1868,73098938167
-3665,91110825539
-4509,48287159204
-1324,95735114813
3345,36337477714
5520,35432963073
4595,27260285616
1988,2291738987
805,828212231398
1841,05168990791
2463,09389069676
593,636301517487
-1963,47680327296
-2369,03491517901
-1955,43647236377
-1770,41209463775
-1572,22503107786
-1813,00799766183
-874,319030046463
1698,38511212915
3310,31311544776
2339,77084809542
822,405752599239
-467,192061632872
-3613,37023170292
-6044,65991942585
-5450,07943943143
-4154,83781802654
-2657,71470719576
-773,860730446875
-39,7496337592602
-864,153322637081
-838,518780052662
-80,5337933599949
-1622,34181197733
-2874,14381738007
-1544,14834731817
-852,889422565699
-1434,01635017991
-1832,64675120264
-2390,15124006569
-3229,76415967941
-2369,25544562936
-370,671292126179
-376,294085152447
-588,922146052122
151,56150251627
-538,079646110535
-1688,77358362079
-1814,62159430236
-1962,22785784304
-3216,49612906575
-3929,40978392959
-721,907011300325
5504,03026907146
8735,11810541153
5680,34293398261
792,083977222443
-428,397446036339
1702,78685681522
3446,92727744579
2120,74961256981
-622,085506796837
-1218,13563284278
-468,527855724096
-336,561548560858
-823,074736058712
-1435,16530552506
-215,65887594223
2846,28525867313
4676,77094514668
3535,76819959283
1621,01747858524
149,207412958145
-2814,5559123978
-5037,06362004578
-4348,93716627359
-3035,88019216061
-1538,74910905957
361,329356610775
1026,83090439439
-39,5536665320396
-472,716981977224
-157,426053285599
-1185,82012150437
-1638,31596061587
-1027,21778562665
-1329,15681561828
-1581,30116817355
-1156,19669111073
-1327,29722936451
-2382,25176137686
-1565,09969997406
1765,43813884258
4087,141142115
4358,21143716574
2872,98662161827
608,907639324665
-108,326937288046
505,811384737492
345,676769241691
-1743,9601354897
-3458,82651883364
-827,638369172812
5345,45786258578
9640,9284670949
8382,77282267809
4213,16566950083
2597,86176359653
4241,50539453328
5587,65938332677
3773,73466730118
302,544025987387
-1290,66675853729
-1574,27932454646
-1976,70208418369
-2357,89120456576
-2571,3180142045
-955,279499441385
2421,77239780128
4555,25247846544
3500,53235864639
1407,29447668791
210,340829879045
-1772,63047197461
-3332,50834600627
-3139,42538958788
-2839,74120908976
-1864,48698636889
148,121826462448
1232,85226745903
546,86502841115
296,910599768162
629,54892796278
-1156,39879634976
-2580,46928420663
-1532,49204593897
-1168,76777487993
-1868,76650449634
-2087,27717684954
-2401,87237152457
-3088,80409440398
-1990,18356430531
291,566793769598
159,634778849781
-341,309129968286
481,220113992691
-136,644997656345
-1579,06309047341
-2092,87621988356
-2451,2966337502
-3633,66552877426
-3818,29444748163
331,187203317881
7312,64110710472
10567,5125771314
6999,42105489969
1674,60538053513
253,492534905672
2156,90899143368
3542,37217196822
1852,81738859415
-1003,87741217017
-1447,90690389276
-562,100145436823
-250,946320846677
-428,79132565856
-922,153998583555
61,5289292931557
2763,39812322706
4362,42593790591
3035,30936914682
967,719495743513
-422,866176962852
-3171,94443507493
-5154,77503356338
-4240,0535582006
-2891,74965852499
-1547,65820458531
161,661900952458
722,517646864057
-365,726023197174
-740,889193415642
-193,143323421478
-869,035239972174
-1059,84634456038
-461,955737948418
-961,93593609333
-1351,75270217657
-923,446528173983
-1045,44088625908
-2052,2264162004
-1225,81228125095
1546,89561215043
2447,98735245317
1855,10741962492
1075,21803545952
-257,850566893816
-767,959355086088
-284,742468476295
-562,423913955688
-2535,89243590832
-3665,24687084556
-254,430228710175
6075,30442266911
9823,1098062396
8054,65775713325
3769,81264269352
2201,09354481101
3821,20754148066
5007,13924400508
2950,37937107682
-705,90567702055
-1725,80526027083
-431,369907483459
119,416936978698
-751,101054280996
-1700,49982395768
-239,942321538925
3346,11733069271
5552,95150001347
4293,65055993199
1791,17061841488
-317,169162601233
-3789,67113070935
-6252,82236123085
-5468,64899483323
-4042,08296829462
-2471,01588946581
-365,623057663441
639,183749675751
-149,729129433632
-452,702287316322
44,85443136096
-1452,08467710018
-2755,84182181954
-1790,52694773674
-1565,57660651207
-2376,07048743963
-2687,00639045238
-3047,17406457663
-3636,55484387279
-2328,48742294312
126,241344332695
164,659356229007
-113,768483027816
803,330951541662
22,0628583431244
-1682,52888357639
-2328,59416627139
-2643,10334841907
-3694,58624458313
-3815,47044599056
297,03734588623
7245,42699816078
10517,8407146335
6943,74171540141
1458,94246438146
-159,868084251881
1747,73960226029
3338,36017021537
1834,11399301887
-1120,43065902591
-862,170143634081
3088,96249219775
5842,59653274715
4044,6205304563
805,663873046637
1220,6859087348
4934,87893457711
7474,13924621046
5947,92546632886
2452,04826712608
-829,254223823547
-5080,12102373689
-7683,03392522037
-6353,33343330026
-3994,53245830536
-1502,73801293969
1284,85762706399
2500,39924877882
1224,86928462982
-47,4883650541306
-497,425713151693
-2685,70915108174
-4336,17164437473
-3307,60860669613
-2473,42127013206
-2232,15246850252
-1611,10618714988
-1600,0503064245
-2394,12847036123
-1778,57175451517
-136,298712015152
-720,768815562129
-1510,13065186143
-461,121435105801
-461,331440746784
-1802,84149214625
-2759,34301234782
-3526,27056971192
-4244,81073707342
-2937,94187730551
-285,832707554102
-53,8528036624193
-338,365676909685
880,320908725262
514,188059091568
-1431,2795317173
-2797,27031292766
-3649,56253960729
-4684,36345738173
-4115,59435546398
32,9897060394287
4465,15928569436
6014,62897586823
4893,51646834612
1965,97510847449
105,63706111908
681,005851656199
1472,04302063584
636,439752578735
-145,326154410839
0,603938281536102
-1415,67285754532
-2486,33458198607
-1338,1192124784
-747,945663392544
-428,291076213121
976,188343152404
1888,75249558687
1059,28935739398
576,023153483868
942,563720196486
-335,125035218894
-1575,75822281837
-1535,20785591006
-1686,04294019938
-1098,17248365283
424,612605638802
958,937608674169
-426,568232029676
-992,269595175982
1184,6788469553
3283,56934823096
3857,85264545679
2850,36160111427
808,325170964003
497,464509367943
2175,93372344226
3026,0738504976
1095,2397763133
-1474,84160283208
-538,507269501686
3148,5862808302
5457,4478264004
4387,85326403379
1754,8424077034
1525,0425914824
4074,61347469687
5815,22171133757
3935,24620944262
69,6867976486683
-971,281026244164
1769,50376196206
3996,60129579902
2389,06695902348
-448,731528967619
294,522377580404
4348,04133401811
7303,01365375519
6119,1963211
2821,17443305254
-323,87583476305
-4681,26116190851
-7579,89220917225
-6441,38898402452
-4402,77305775881
-2448,8284560442
-62,8459257259965
1152,5954195261
316,516362309456
-238,218785643578
156,579253256321
-1463,99902948737
-3263,13102760911
-2821,05537194014
-2630,92897129059
-3064,48211666942
-2962,77617172897
-3057,53579030931
-3640,11343997717
-2497,75738304853
48,0814146101475
80,9881789088249
-572,094936177135
556,876702725887
316,772183418274
-1718,9505957365
-3417,86352150142
-4629,1759891063
-5829,05196398497
-5050,12622141838
455,932118415833
8274,70323078334
12319,6123091578
9540,66433888674
3617,50206506252
545,173322230577
1206,94827947021
2245,62540252507
853,223488837481
-1701,63823831081
-1106,7635665834
3061,37930479646
6007,72360931337
4322,84329548478
861,489299178123
869,193101853132
4419,47639917582
7137,07991653681
5831,77376613021
2302,33634865284
-1108,10792082548
-5332,67707584798
-8095,72606496513
-7401,25954031944
-5421,83259433508
-2554,02433344722
823,725800961256
2331,39380967617
1081,00222918391
-407,719182133675
-1373,37590131164
-3967,48444128036
-5391,29813751578
-3660,85028389096
-2501,22167414427
-2664,25691789389
-2589,58184850216
-2769,94460861385
-3570,11907556653
-2713,80044364929
-347,979106277227
-307,84790726006
-910,986555114388
-101,307030916214
-604,034595608711
-2091,48605909944
-2815,35710315406
-3345,72442749143
-4530,15082389116
-4870,6230686307
-1210,23905426264
5536,81785953045
9199,57932700217
6204,58966708183
1046,22916346788
-604,46527338028
1038,21763872355
2407,66940028965
956,343484282494
-1815,69137072563
-1373,13956496119
2988,18673457205
6180,91573935747
4405,01845860481
771,792755812407
679,942108482122
4083,2073719427
6639,42269662023
5381,08629444242
2325,25367480516
-453,959463655949
-4493,92823597044
-7262,53111080825
-6244,41829109192
-4239,55654382706
-2001,19239678979
764,597121626139
2178,9840207845
1240,12101602554
167,201675891876
-461,503258496523
-2660,05952204019
-3773,00679585338
-2423,29061049223
-1785,90160810947
-1863,55096718669
-1522,99387639761
-1619,70459485054
-2327,84730806947
-1442,60787898302
533,905477374792
479,428181916475
273,682648256421
870,60970389843
-91,2057371735573
-1477,65346944332
-1870,04057539999
-2282,33844681084
-3162,63320606947
-1967,13499259949
1472,21691459417
2909,78456674516
2345,38698388636
1430,12305548787
-101,871287822723
-902,822113066912
-612,777147248387
-961,758867740631
-2544,10337483883
-2902,66705825925
-1873,96926265955
-2659,33592954278
-3135,74764148891
-1353,12583315372
-497,852017492056
-767,902818471193
-723,213094934821
-1095,71225090325
-2575,01978868246
-3007,81452915072
-1001,29621696472
246,78729147464
453,268344894052
1031,28220292926
421,847787648439
-418,306851416826
10,5340883657336
350,315699622035
-620,878680288792
-991,128771901131
135,324470043182
-262,73599679023
-1138,06223019958
-565,654680192471
-635,254167288542
-834,443634539843
132,1947215572
890,141487628222
426,93706202507
473,348826766014
967,274489462376
-1072,73515605181
-3113,23891209066
-2316,30993774533
-1527,22173932195
-1541,27342551947
-1158,03760693222
-1041,55435626209
-2088,84907874465
-2168,29255369306
2021,86308512092
8583,44948498905
11638,2611302584
8447,9556350112
3243,49671649933
1791,02155092359
3995,6588345021
5722,7883387804
3897,56160777807
70,6786712706089
-832,709071964025
2269,40801380575
4775,58821949363
3094,60263884068
201,085847765207
1185,04147568345
5522,73810746521
8507,49624164402
6837,09280571342
2443,42992126942
-1294,93260902166
-4774,94850327075
-6602,8540045768
-5425,56664562225
-3670,35696321726
-1384,02564007044
1833,6724255234
3729,08269819617
2811,17632704973
1226,7654748559
206,243787437677
-2200,58997859061
-3729,59545575082
-2803,49663388729
-2415,06749582291
-2390,419500947
-1509,94043602049
-1034,97140337527
-1585,22555792332
-1116,52964890003
190,932089090347
-503,71711486578
-1364,09537051618
-1060,39126646519
-1793,02023220062
-2943,34351843596
-3327,83800396323
-3763,88575476408
-4693,22134202719
-3560,85275554657
964,999356359243
5273,28095473349
7214,00251333416
6251,15801668167
2754,29671275616
110,412766516209
-293,380520656705
-432,545917391777
-2004,68515643477
-3197,99060767889
-411,141112565994
5407,81229430437
9325,39386719465
7969,15891566873
3600,20842653513
1726,47149899602
3441,21814389527
5175,66644082963
3814,37638756633
587,54135632515
-1938,31295290589
-4530,58531714231
-6067,11304371059
-5149,69941914082
-3859,71486854553
-2057,29064652324
816,70879021287
2580,66822546721
1566,24293488264
-132,246438980103
-791,045611470938
-2387,49466314912
-3855,97283239663
-3726,78734457493
-3588,38228797913
-2942,05725184083
-1366,35722118616
-540,213277265429
-1193,36545929313
-1267,39693182707
-525,4318780303
-1796,27225361764
-3031,78160205483
-1982,53679665923
-1540,475925982
-2303,71442401409
-2783,50248381495
-3309,93598718941
-4091,06712558866
-2928,56400471926
-263,284398347139
184,170194640756
293,535986542702
1583,65156972408
956,930446445942
-807,87717756629
-1565,39311027527
-2014,87092839181
-3275,7819544971
-3879,49705553055
-348,112364202738
6417,48525136709
9852,92732396722
6478,18726661801
1212,71150794625
-79,4514708817005
2223,60826833546
4150,64918480814
2813,77431958914
-303,89230003953
-2081,12511351705
-3067,14849127084
-3230,39936749637
-2072,48115214705
-1388,02061456442
-332,391467481852
2086,64475753158
3696,36128233373
2714,53114143014
1136,09811270237
445,151825785637
-1659,31436952949
-3690,25402465463
-3420,60495227575
-2734,08535218239
-1689,69852668047
129,88304053247
1004,79985229671
129,706866413355
-348,237677752972
-176,178928732872
-1613,79050576687
-2401,56376355886
-1435,77228483558
-1429,4848818779
-1829,57048520446
-1466,67180404067
-1416,67288032174
-2363,58052071929
-1884,46486929059
1534,27229005098
4695,95706431568
5753,72103469074
4504,29696801305
1538,42350819707
-72,8962779343128
460,568412907422
788,443678170443
-823,071317523718
-2435,5345800817
-286,525056958199
4901,68674771488
8354,05809254944
6863,3747561872
2906,65454104543
1778,11724579334
4073,02062983066
5942,73603662848
4329,89259508252
722,057853877544
-1828,57740995288
-4031,13726560771
-5365,62749956548
-4508,23096516728
-3276,91952359676
-1486,51212546229
1420,3664393574
3239,05850636959
2353,21937900782
853,665480256081
238,895849883556
-1629,00797665864
-3202,33762638271
-2680,35430875421
-2374,71345198154
-2117,40191298723
-955,995922669768
-280,380949944258
-852,666544556618
-752,316555023193
33,5800370872021
-1450,88739976287
-2869,27875009179
-1734,25662729144
-1281,107239604
-2279,73414987326
-2977,36482939124
-3489,85964883864
-4009,25630933046
-2607,11525154114
85,6389027535915
351,794046863914
47,7401512265205
1012,753572613
354,131592214108
-1471,51526004076
-2391,07764914632
-2876,53282569349
-3997,82726046443
-4380,84059765935
-569,041285425425
6677,83650365472
10798,7192119211
7778,76743984222
2090,38063892722
27,9133580029011
1861,68134857714
3752,8456107825
2615,48341584206
-306,06555005908
-1682,58252999187
-2107,35239133239
-2371,0304941088
-1888,50744608045
-1596,46181532741
-477,074556082487
2199,04212219268
4052,243478477
3151,49938738346
1444,00197976828
481,589470893145
-2003,97454180568
-4278,34951893985
-3737,77088311315
-2525,82817798853
-1234,70580452681
490,776384942234
1138,30564430356
103,551871776581
-367,197069942951
-62,3721880018711
-1308,55820931494
-1707,00437390804
-224,237482666969
-76,6833011209965
-776,520907312632
-747,080861598253
-900,010154232383
-1905,13611733913
-1361,36348792911
1331,51491951942
2286,23087632656
1708,65550985932
1292,30594700575
99,1197126805782
-717,060562968254
-402,08039816469
-508,999709367752
-2070,43276813626
-2902,41296681762
397,840623736382
6404,99602312595
10106,63829422
8523,42042511702
4170,48173412681
2365,32252126932
4004,05689795315
5534,37903010845
3915,45562249422
470,383017957211
-1706,55310347676
-3270,69772913307
-4129,1398999393
-3363,4468305409
-2644,5070682168
-1340,25594094396
1419,4708153531
3401,12598490715
2694,4584992528
1169,3914552927
323,571249127388
-2123,22434406728
-4407,53769126534
-3956,38306766748
-3086,92975008488
-2317,66969898343
-906,940021492541
-163,554993093014
-776,044569075108
-689,061717808247
50,6993068158627
-1127,57609368861
-1775,37534455955
-546,76297390461
-599,495419383049
-1622,05238616467
-1964,85542215407
-2257,66373962164
-2876,5988380909
-1907,42759680748
167,514303594828
-417,126843973994
-1684,25422336161
-847,746143877506
-735,214329153299
-2003,14483174682
-2955,07846713066
-3699,9902202636
-4537,32167235017
-3273,22672694921
205,426640629768
1871,52530309558
2054,69588594139
2097,82889270782
580,91686964035
-1013,27395769954
-1170,82891970873
-1117,13335078955
-2274,31949782372
-3604,45805588365
-1523,42890906334
4409,47423844039
8929,50010636449
7557,88056442142
2944,01150080562
1057,63830152154
3007,56931294501
5125,88415957987
4109,44089868665
1033,00162163377
-1234,84625041485
-3284,53035962582
-5032,46135944128
-5201,24905133247
-4346,25021207333
-2006,46972152591
1469,73012980074
3468,1050965637
2703,31950870156
1390,42619857192
269,27787193656
-2561,61650840938
-4183,05053444207
-2791,20213600993
-1671,63595768809
-1088,27227008343
-39,3166863694787
305,661794945598
-682,822548687458
-530,994309395552
1469,30800721049
1872,68968518823
1007,75685937703
393,086915284395
-703,7166480124
-1156,56355232
-534,404921524227
-537,180070072412
-2141,99736517668
-2934,40851536393
443,216886997223
6374,315570198
9800,03304567933
7899,97969707847
3582,45362910628
1956,70492884517
3449,79210321605
4590,08789332211
2661,87905460596
-890,365015476942
-2639,07467398047
-2848,02725285292
-2239,8788652122
-960,019675195217
-671,4119143188
-155,317149877548
1943,1727700308
3592,50699235499
2755,1287830472
969,553728163242
220,939116239548
-1251,93412486464
-2700,7285810709
-2498,46764558554
-2470,37519133091
-2144,43182951212
-484,043321184814
825,432104721665
537,256271839142
367,471868813038
638,674553513527
-1155,61802008748
-2729,79819044471
-1986,12498226762
-1726,95291930437
-2115,33096447587
-1828,65143936872
-1659,38120217621
-2109,38976716995
-1253,66541999578
697,787817746401
155,807430118322
-1017,37702187896
-140,34484115243
-91,7291491627693
-1538,4459156096
-2633,67083410919
-3366,29883332551
-4028,93889462948
-2834,40509486198
-258,416863322258
206,343211591244
264,088109046221
1357,2813000083
564,349451541901
-1297,88335841894
-1966,56293097138
-2080,66038067639
-2963,03750875592
-3556,26332354546
-477,02528193593
6024,3060233742
10326,8667507917
8481,61157745123
3613,11216983199
1605,66362372041
3367,89192894101
5287,73336108029
4516,86003047228
2421,98146119714
302,128681510687
-3276,35966525227
-5608,12247629464
-4519,96004700661
-2768,0747038722
-811,74478918314
1728,16089972854
2981,90282358229
1997,82187005877
831,639892667532
-143,307886511087
-2862,4896049276
-4389,79838964343
-2915,59169781208
-1776,02661108971
-1414,24134013057
-666,008691892028
-430,808788314462
-1242,86597141623
-909,773424625397
740,166507363319
651,82400047034
130,615175098181
422,898095011711
-307,16188070178
-1105,47056630254
-916,97875417769
-983,485030919313
-1985,0610319674
-1476,47696900368
1357,44705581665
2777,97678474337
2283,85232524574
1372,1934607029
107,657391726971
-184,820493549109
652,408647708595
779,83142773807
-1038,66458505392
-2987,57104057074
-2355,32837888598
-654,684605255723
765,988526120782
1979,42908275127
1515,17899394035
653,819880306721
1131,83194443583
1590,10947689414
465,704892247915
-833,457781046629
-366,0943608284
-131,356470525265
-428,919716015458
-27,5884813666344
-423,32262301445
-774,320749372244
369,767741180956
1503,90832145512
1070,71126812696
527,663255512714
887,156526505947
-105,987384080887
-1297,41069996357
-1135,72542279959
-1465,91533511877
-1570,04940760136
-357,696935027838
624,072899714112
175,004258602858
24,4235752820969
518,055276989937
-1256,06661020964
-3045,78600016236
-2087,25967663527
-1360,52962931991
-1675,33783617616
-1578,57097988576
-1531,40466217697
-2106,4588817656
-1400,77210310102
651,822790652514
803,115666531026
555,271212697029
1398,52590379119
725,900091677904
-632,158338308334
-806,179017543793
-769,664633661509
-1820,55933943391
-2421,03129374981
746,403463870287
6633,39941638708
9302,87394954264
5883,21515381336
1173,901779145
490,446662425995
3051,55198693275
4920,61023359001
3456,44911056757
300,074406176805
-1434,52194976807
-2600,57085656375
-3176,01178845763
-2012,22947892547
-871,71740436554
446,676121473312
2692,53183797747
3906,80389808118
2717,82305046916
1121,08651575446
103,445632249117
-2487,49061936885
-4358,66524492204
-3159,8635096848
-1791,4605461657
-1055,34830752015
-70,3004185408354
229,557294905186
-576,794388115406
-417,671619743109
752,497997879982
347,258321605623
-13,1695824712515
579,067463099957
-106,049872845411
-1147,43066880107
-1200,40663888305
-1267,91056805849
-2281,12238922715
-2166,92694583535
2158,53492948413
8867,50272962451
12779,4025186151
10853,1195164323
5642,74931892753
2806,04762542248
3667,69232131541
4919,54704201221
3457,4854439199
238,213913023472
-1388,16901490092
-1887,67246127874
-2348,07300582528
-2218,70540460944
-2101,62152153254
-870,585549920797
2049,92164626718
4134,49483111501
3446,38203465939
1812,61761066318
630,349388837814
-1882,95956090093
-3729,00289148092
-3164,72089588642
-2632,25459951162
-2005,2265920639
-469,999427050352
438,830227091908
-233,75022521615
-343,587090015411
527,918123036623
-942,085233584046
-2662,82195717096
-1634,45591631532
-885,699270486832
-1495,42840051651
-1918,96577087045
-2387,30445961654
-3308,11516731977
-2597,8124371171
-239,970854401588
90,2949630618095
-262,109360173345
588,947588801384
36,4286939799786
-1475,19189271331
-2066,89917738736
-2397,82773682475
-3477,4803750813
-3542,96445763111
435,448439657688
6856,83398807049
9992,33164300025
6968,23316279054
2016,42278933525
594,675585836172
2434,82911165059
3799,34160979092
2054,36800250411
-1209,59873783588
-1488,52936285734
1895,80594225973
4284,18859380484
2482,69022533298
-316,800816625357
461,226578503847
4129,18010511994
6589,72518494725
4955,1512517333
710,437657445669
-2575,43189150095
-4760,46407198161
-5604,09718325734
-4429,16755494475
-3126,09329789877
-1476,62722662091
1193,97605656087
2918,25656755269
1989,09123054147
148,098529994488
-315,888150036335
-1146,51531645656
-2344,90553011
-2423,47196173668
-2595,31686514616
-2351,88399726152
-887,179541096091
158,422277957201
-313,325083404779
-340,845731079578
514,188550949097
-193,186506554484
-927,056478977203
-694,619875043631
-1459,90384525061
-2304,45053362846
-2207,40491251647
-2287,74973221123
-3162,67350119352
-2469,75298422575
796,646924108267
3005,76290841401
3191,05477100611
2306,68820688128
298,733786582947
-1023,02382451296
-936,358880341053
-1109,24862003326
-2730,69806414843
-3746,20381343365
-660,375462412834
5377,73277696967
9207,1817817986
7652,49915805459
3449,99524590373
1746,31837627292
3141,5820518434
4312,10065624118
2523,59651088715
-1092,87632036209
-3132,98994612694
-3719,83843497932
-3774,29967023432
-3063,75128123164
-2627,44423171878
-1521,37601780891
1070,39880041033
2942,81842462718
2058,26218739152
-16,0644732713699
-707,060958117247
-1345,33720137179
-2307,77296809852
-2553,12565588951
-2863,78700572252
-2339,22801211476
-401,210775710642
937,210125759244
377,015077352524
-132,36227285862
-43,3991676270962
-2154,19465945661
-4165,33086079359
-3179,69561240077
-2212,55980527401
-2452,01369854808
-2483,33348549902
-2553,48979058862
-3125,50898984075
-2328,1854184866
-347,525247305632
-484,120194450021
-937,745380118489
-18,4751624763012
-552,414312452078
-2017,73369404674
-2501,18952958286
-2688,83950287104
-3667,65162727237
-4110,65374150872
-839,645504534245
5419,4383648634
8746,03693258762
5722,72106227279
654,394738793373
-939,271330982447
871,999302253127
2601,08011589944
1511,11416310072
-1390,5978911221
-2527,79422986507
-1963,29828311503
-1486,553408131
-1198,52245554328
-1438,40261855721
-784,609458118677
1543,69421767443
3239,3596739918
2350,1011698544
478,60895088315
-435,605852484703
-2055,90422445536
-3554,42054836452
-3179,27463069558
-2594,80123671889
-1718,10112598538
29,5782983154058
996,650923371315
237,088472217321
-302,834187835455
-109,393656611443
-1321,39850598574
-2009,28648141026
-940,946040481329
-793,900871425867
-1272,47455742955
-1080,36219699681
-1088,08202749491
-1902,72805181146
-1207,49042063951
1651,79166844487
2985,0217538029
2498,94509111345
1567,28511700034
26,6469268798828
-687,145415723324
-240,908718198538
-351,540321618319
-2092,31875440478
-3461,10349929333
-843,077619314194
5052,90466251969
9311,64739523828
8378,29156881571
4305,49625506997
2346,80763208866
3691,71097316593
5126,42198425531
3675,17487949133
293,624948590994
-1580,1177470386
-2217,67983801663
-2704,41999906301
-2495,32954254746
-2341,72958263755
-1263,58748799562
1551,17101182789
3736,92357450724
2983,4550396204
616,700536221266
-607,833416312933
-1660,93013121188
-2784,16896951199
-2780,45520475507
-2668,76464638114
-1914,47934439778
120,075022891164
1531,73708947003
1050,25042805076
593,315017282963
663,116012215614
-1013,21884921193
-2159,10258752108
-1259,67942222953
-1207,0298320055
-1754,29322308302
-1480,811030671
-1305,84556828439
-1915,96478143334
-1414,29141569138
165,115405589342
-690,353892698884
-2121,43454171717
-1253,53073427081
-909,291597664356
-2024,02131545544
-2891,48672902584
-3459,43215161562
-4067,83714494109
-2933,70929685235
-308,508480966091
226,505992427468
68,9273462742567
947,624386250973
278,864943772554
-1374,93074193597
-2042,3047028482
-2263,30054797232
-3169,40079075098
-3779,0882166028
-757,975395798683
5992,04431712627
10938,4024294317
9463,17443358898
4238,76029369235
1562,47504732013
2914,43366327137
4846,03780563176
4050,25819516182
1373,47332921624
-691,335895568132
-3060,59142437577
-5018,50232417881
-4705,54685249925
-3561,57905566692
-1621,53680557013
1399,86180151254
3326,26031669974
2601,86460953951
1091,83964774013
-18,4536186158657
-2364,17024884373
-3696,55033133924
-2507,95692104101
-1729,95746549964
-1351,81953498721
-235,368454456329
410,252774104476
-237,448800444603
46,7995568811893
1880,22969552875
1914,65368463099
725,678560093045
147,798414260149
-691,102291613817
-998,68339625001
-340,271369427443
-297,033907085657
-1945,02969944477
-3329,52211618423
-733,668212562799
5261,3587308377
9696,56311501563
8936,33953756094
4791,38333314657
2454,19662231207
3380,81131240726
4560,49769423902
3082,76186335087
-214,720609098673
-1630,36894339323
-1177,33540517837
-997,542164817452
-1273,93807062507
-1860,33756703138
-1040,36167755723
1788,55243925005
3934,75066609681
3086,2543028295
614,428925454617
-1022,68666514754
-2618,3960686028
-3584,05123263597
-2964,10237705708
-2644,83674436808
-2085,75818866491
-198,228815749288
1323,79475392401
1075,6453306675
707,685927569866
735,226555347443
-1025,33419521153
-2306,66460882127
-1462,7735478878
-1469,03158390522
-2165,66154778004
-1938,26890318096
-1622,23263193667
-1996,21683186293
-1276,79901498556
493,50176012516
-236,567903727293
-1780,05041077733
-1220,76236227155
-1098,39070188999
-2277,30651968718
-3160,09943972528
-3721,41388732195
-4364,33639237285
-3331,22997051477
-557,214363873005
550,25125670433
963,383933737874
1990,5965244472
1062,35396552086
-908,465259462595
-1651,15469041467
-1788,61438282579
-2671,54861685634
-3484,86818769574
-962,383939176798
5062,38436551392
9345,88658669591
7743,19651031494
2914,7929302454
666,294029504061
2211,30272720754
4124,56890560687
3282,65098023415
630,965387046337
-1366,88324764371
-3553,03398060054
-5171,30462154746
-4494,40436986089
-3233,55257561803
-1523,09585127234
1134,46717915684
2817,16034792364
2178,08663794398
1127,93558165431
630,288049936295
-1255,51165671647
-2556,60813257098
-1743,00975707173
-1342,14604908228
-1114,38550311327
-54,2844894826412
459,789347648621
-377,396395087242
-222,58152359724
1457,90035519004
1318,23097425699
212,020810201764
-48,9522295594215
-558,370579689741
-627,666329681873
106,980274289846
64,6382061392069
-1682,17531776428
-2704,4118348062
312,412087827921
5810,23211891949
9305,16678252816
8032,10436025262
4046,66200855374
2252,98802822828
3509,36917426437
4592,80701063573
2769,70791766047
-775,323368519545
-1586,08307027817
1061,6446012482
3293,10292308033
2646,84400752187
597,017243742943
840,379711806774
3884,91413453221
6275,37022483349
5032,77153664827
1288,94470158219
-1630,89031764865
-3711,35260282457
-4866,73407772183
-4330,50070258975
-3621,7468200922
-2246,33337649703
502,106271907687
2523,38197022676
2197,10632058978
1252,69838017225
666,64791816473
-1787,88256597519
-4099,00099399686
-3771,73188868165
-3230,50344777107
-3066,6374823153
-2332,89202548563
-1876,4338632524
-2236,02510371804
-1464,09507781267
453,659373193979
-102,668389454484
-1550,09850512445
-913,738787770271
-850,172083377838
-2393,81813836098
-3755,05877414346
-4635,7036164999
-5191,25888550282
-3623,83287507296
-335,929239958525
770,193069964647
792,521710053086
1589,71666499972
660,569989442825
-1505,92150259018
-2713,07757811248
-3248,39904971421
-4136,59797853231
-4394,46868950129
-993,012955754995
5697,50156208873
10087,8725423142
8131,65391030908
2973,92972353101
623,658582419157
2091,33405286074
3870,11041199416
2890,50232648849
-37,8857903182507
-1837,86017253995
-2705,33707408607
-3125,14404408634
-2463,72274899483
-1939,05316418409
-779,028676003218
1910,16495758295
3917,93790216744
3392,06923705339
2059,3392855525
1075,66018369794
-1832,11086088419
-4587,00525568426
-4187,45087894797
-2845,53682777286
-1548,74542614818
82,8997307270765
736,714089304209
-309,127152293921
-736,546538770199
124,702301830053
-544,665078416467
-1335,38605995476
-678,767194271088
-704,233449369669
-1037,72978502512
-708,323454424739
-798,950064137578
-2223,69988465309
-3224,91582259536
-459,231010913849
4875,57401238382
8164,2449220717
7165,46025043726
3521,6365031302
1382,61836928129
2108,83935130388
3098,12041969597
1866,12884235382
-603,225264430046
-1084,9181213975
-495,55661662668
-775,192733183503
-1088,23732206225
-1428,69325536489
-759,428504019976
1570,90773212165
3323,53892190754
2620,29625704885
1091,30745378137
116,947583138943
-2490,19856330752
-5058,56752958894
-4607,83969458938
-3223,86172878742
-2163,75936862826
-946,947147354484
-420,451742231846
-1234,99097076058
-1318,8663212955
129,284815222025
309,335018604994
-57,3959867358208
277,624756723642
-366,37134963274
-1210,12705817819
-1152,67387783527
-1254,72682598233
-2143,6248499155
-1855,77736884356
-190,949198186398
-568,631750568748
-1506,55073365569
-491,379270076752
-185,854971140623
-1200,68923169374
-1900,31154170632
-2462,67551352084
-3336,39392262697
-2518,45258688927
302,611220091581
1335,74866712093
1259,77431946993
1954,64539757371
1265,12223428488
-140,677980422974
-387,657455891371
-328,647397354245
-1375,47533488274
-2707,03452476859
-823,832224309444
4785,99885810912
8978,69206567109
7517,63847616315
2964,55300220847
1161,69254425168
3301,76638004929
5699,19665300846
5092,12601295114
2575,90508401394
107,844750523567
-3593,41901231557
-6347,57138024271
-5383,96244496107
-3447,87949049473
-1626,23553797603
801,09312877059
2425,9225807488
1944,61303448677
1022,87008589506
544,223942399025
-1816,32313914597
-3907,33681070805
-3064,81469988823
-2070,92871817946
-1739,14777880907
-948,884408712387
-494,310510665178
-1037,22693508863
-659,068892985582
902,425752133131
761,272681772709
174,221754893661
499,219876080751
-232,083081573248
-1339,6330267489
-1562,70010066032
-1766,76214373112
-2908,84788668156
-3486,01724994183
-450,116796463728
4775,58704198897
7983,42895288765
7383,1391607523
3985,9418631494
1551,37321534753
1913,22251150012
2823,54026855528
1765,61891528964
-369,65700751543
-272,379162609577
1285,57000099123
1725,90177315474
925,090075820684
-508,85523879528
-367,832465708256
2079,73552308977
4025,69589528441
2960,84282210469
55,3282924592495
-1571,37735828757
-2369,30743436515
-2943,36703431606
-2538,41765338182
-2300,66421452165
-1563,81619688869
586,73934032023
2249,67917251587
1773,07841077447
794,29811245203
473,923058211803
-1427,2806802392
-3170,075558424
-2386,34032684565
-1758,29061388969
-1910,90817901492
-1473,26336114109
-1115,32845440507
-1630,19333088398
-1326,7081438303
-116,781336009502
-1032,55371290445
-2273,11675335467
-1513,62692525983
-1323,76727792621
-2117,0972212851
-2409,34120737016
-2615,68749839067
-3478,68710562587
-2862,17403960228
1180,43813273311
5774,79240508378
7782,70786458254
6235,33504772186
2675,26924234629
860,949593067169
1567,57697963715
2205,62359435856
597,581534534693
-1874,25462076068
-1332,02040177584
1793,65544849634
3762,6456912756
3124,94806280732
1202,71985960007
1120,47753402591
3447,25317381322
5151,57753941417
3952,62045943737
1475,8716661036
-622,291871398687
-3953,65793699771
-6487,84562306106
-5525,83724999428
-3547,8641295433
-1850,63896080852
-59,3601245731115
712,114708259702
-103,695600748062
-666,807394772768
-710,512424767017
-2334,99010938406
-3298,08116847277
-1925,6595236361
-1253,81395339966
-1686,7438454628
-1818,25309899449
-2043,40460941195
-2496,7604021728
-1714,61402848363
-555,425567120314
-1524,8181348443
-1981,96880842745
-371,787358403206
-226,006839573383
-1830,32605749369
-3006,38660748303
-3541,0143853724
-3757,5658429563
-1904,48515531421
1726,15781569481
2823,09505668283
2424,74411964417
3084,11114886403
2286,68383479118
220,896280407906
-764,980820477009
-998,874171644449
-1525,57674860954
-998,04933783412
776,076833844185
182,318896882236
-1633,50771316141
-1050,03846094012
-9,03606933355331
-28,8729677200317
126,349340647459
328,021673478186
-183,569679379463
-33,8435097038746
812,081236988306
-782,715192146599
-3268,99299455434
-3147,4790045321
-2028,62810495496
-1443,72637286782
-936,342170447111
-950,769112989306
-1779,60596236587
-1535,88168612123
-219,004903018475
-625,72018904984
-856,536175519228
741,677348613739
1113,00321340561
200,592941492796
-219,678943008184
-557,309284448624
-1367,70704546571
-1059,49210992455
316,044773846865
-433,615769378841
-1724,69335921109
-861,637790113688
-229,741954594851
-681,303530648351
-817,488205946982
-884,227537341416
-1552,68330654502
-1194,47989162803
268,455962836742
-328,180247612298
-1171,23297416419
-21,303238004446
277,668585538864
-425,663417756557
-393,785684555769
-193,100814789534
-1045,88237807155
-2184,16428953409
-430,072482272983
4654,77964559197
8260,85803000629
6514,49740108848
2172,05443158746
740,483330845833
3049,20065236092
5544,25046754628
5165,47553509474
3047,5698082149
1062,956618011
-2318,67061466724
-5240,61781458557
-4606,89922627807
-2555,45046746731
-409,596553713083
2055,7637604624
3374,20050388575
2408,9725394547
1118,84790655971
854,28412309289
-491,279862053692
-1896,95978888869
-1736,75856387615
-1577,72800031304
-1129,72625485063
68,5949076265097
487,727840170264
-534,570685774088
-410,53305748105
1631,73001769185
2049,84681843966
1320,08215604723
1207,25450786948
594,737906366587
166,680686712265
494,896615304053
199,515556365252
-1617,65314534307
-2868,99603235722
252,033156841993
7033,15673025697
11708,7678268254
10279,4096275866
5492,86803495884
3077,10268092155
4109,49359176308
5274,43075081706
3652,37997704744
53,3640843629837
-1152,92668494582
1584,55555453151
4016,45460943878
2521,9127689898
-361,048813819885
134,059272348881
3947,11957454681
6966,72217164934
6037,34695789218
2497,84658315778
-593,205828756094
-3497,74559385329
-5292,62031032145
-4637,07666960359
-3526,01512539387
-1993,21662777662
582,519856050611
2319,02348713577
1720,11185213923
572,657290577888
273,301305919886
-1172,13748843968
-2252,45867832005
-1260,94408395886
-1025,57028633356
-1632,17932724953
-1443,47001861036
-1148,91750572622
-868,525559365749
426,845061421394
989,926972448826
-1313,52436560392
-3893,47132912278
-3309,65728119016
-1192,5527253747
-1315,505186975
-3280,25654491782
-4916,98969563842
-4467,75303292274
-1362,77686238289
885,436528742313
20,419827029109
-696,562454238534
967,905637472868
1879,48832455277
-311,556678205729
-3480,81368683279
-5553,44809458405
-6419,91068282723
-4853,10896328092
1115,92694494128
9233,70686128736
13812,0301559642
11594,5890227258
5545,41877940297
1799,44939443469
2100,43743306398
3396,8035402894
2500,6213632226
-232,243450284004
-1284,31942114234
-618,693413764238
-520,148320183158
-974,366498708725
-1440,54229256511
-193,600516587496
3112,45288290828
5526,03118500859
4683,31008547544
2005,70044603944
-651,040577322245
-4223,13942438364
-6646,40765224397
-5928,04703420401
-4241,57205116749
-2064,15626108646
645,182769007981
2012,45959737897
1121,66788506508
291,073886603117
381,922637939453
-1048,6021156013
-2379,19962252676
-1940,06587517262
-1738,96656602621
-1567,54410091043
-760,128375068307
-604,767407849431
-2067,08694812655
-3342,83580645919
-933,4662117064
4749,53368443251
8799,31839166582
7541,92441010475
3176,50303509831
933,211725145578
1934,76047886163
3152,78572100401
1866,25368654728
-1108,78280812502
-1706,12181857228
1349,46194812655
4151,61186911166
3085,42731276155
22,1732992827892
-267,437047034502
2766,30028022826
5406,27018484473
4561,23298704624
1211,50568702817
-1862,83420687914
-4880,79591647536
-6806,23524385691
-5906,13594311476
-4378,40804845095
-2902,62402448058
-679,411595135927
905,578131273389
520,789875805378
-71,5418984293938
434,379838258028
-418,133819818497
-1629,37830932438
-1161,68771791458
-1284,69591063261
-2038,78748339415
-1880,52194446325
-1559,78437392414
-1776,86627417803
-1009,75786346197
326,129028886557
-1035,79132667184
-2923,87817361951
-2100,96230462193
-1359,64116382599
-2397,52936279774
-3657,91246390343
-4529,70132322609
-4906,93881833553
-3152,05967959762
-178,504421651363
128,711261183023
-479,222112752497
466,866352170706
219,303318411112
-1549,77301394939
-2838,83679898083
-3594,54381934553
-4616,64635303617
-4741,88801035285
-977,581718593836
5870,9690182507
10202,9442655519
8349,29467710853
3331,45375937223
840,543284893036
1986,83164337277
3537,57290320843
2532,09628078341
-106,786865741014
-1871,2566139698
-3529,76977586746
-4552,08077537268
-3503,11189392209
-2303,22093033791
-1052,88422253728
1140,60000261664
2672,08611888438
1979,95634227991
744,803468674421
355,289415299892
-1390,49488431215
-2970,98306962848
-2113,92523139715
-1252,17391428351
-730,345255315304
485,146585397422
1156,42715741694
292,817596644163
-258,771960496902
19,8746562302113
-1296,71137597412
-2212,5816462338
-1109,67035976052
-851,54327532649
-1264,29257652164
-861,357178352773
-529,700553461909
-1288,79470613599
-1326,98100936413
784,78742223978
2117,38997977227
1886,87070724368
1279,29598021507
-173,800134003162
-1095,93400928378
-533,625437021255
-84,3102268278599
-1222,64461290836
-2575,16635480523
-689,647866725922
4056,05879117548
7548,18845328689
6997,42413577437
3607,93346253037
1767,98292192817
3089,78830011189
4785,47240322828
3894,86022111773
1086,31248494983
-1207,25782236457
-3651,29457774758
-5455,03020389378
-4669,99204751849
-3268,2255358398
-1865,68034559488
351,429612658918
1999,94968578219
1660,93435484171
1003,21786609292
1293,97261959314
-24,3253745436668
-1883,53640471399
-1812,55846789479
-1665,80661422014
-1666,25613278151
-804,748338535428
-207,347176611423
-761,244838863611
-648,883725762367
429,124330848455
-709,785789713264
-2528,89401696622
-2032,05802625418
-1412,34134578705
-1872,65136089921
-2351,08792865276
-2934,72625944018
-3878,75108277798
-3234,69602376223
-834,062018215656
-119,111929178238
100,491027235985
1445,8758212328
1036,37447786331
-725,907974302769
-1674,03301870823
-2169,89146865904
-3238,01495993137
-4025,44075742364
-1514,19823503494
4365,30705682933
8338,58114919066
6428,71579542756
1760,61624357104
-83,6034423112869
1634,28614187241
3582,05369785428
2833,26692298055
195,785103857517
-1549,05756619573
-2753,37660274655
-3444,44869764149
-2676,22033590078
-1998,5749271512
-1075,69058045745
1108,71363737434
2854,97417043149
2366,90181186795
945,778078258038
241,102696895599
-1392,52449407429
-2956,98750968277
-2579,48925703764
-2145,79238605499
-1718,11008691788
-423,206876069307
384,178649574518
-255,752150535583
-500,858563184738
84,5812833607197
-974,516502857208
-1862,35621798038
-973,159726858139
-879,19444283843
-1409,72385597229
-1219,47619658709
-1092,68372024596
-1891,89561271667
-1790,1944668293
757,210959941149
2845,62131865323
3165,219861269
2533,02869519591
729,534866571426
-546,304947584867
-235,736520677805
74,6974513456225
-962,705566823483
-1547,15281492472
-7,9359864294529
962,661717116833
1299,78569200635
2446,29443210363
2287,26663339138
1403,13436952233
1746,91850901395
2223,96480737627
1187,90750688314
-135,037557125092
-240,874177217484
-1455,91342775524
-3248,99618658423
-2576,65796878934
-1193,25545036793
-663,78519153595
54,9881133139133
634,154146403074
192,122817188501
222,837884396315
911,881816834211
-793,758105583489
-3055,0224211067
-2620,5465670228
-1693,12011757493
-1579,97477254272
-1400,60477945209
-1441,78549735248
-1905,23207083344
-1104,69948127866
580,61423894763
216,03783968091
-206,312750630081
1048,07324054837
1016,37648245692
-290,710534960032
-1058,09903439134
-1546,39089395106
-2269,41882431507
-1559,92409723997
712,485737323761
858,584210462868
-97,6960621699691
576,4685523808
631,785931438208
-426,896565318108
-902,007208295166
-1098,80057156831
-1957,4032972455
-1910,68609169126
275,495190292597
1553,97815774381
1275,3347305879
996,428667843342
-25,8052242994308
-671,862351953983
226,889765024185
1058,70952655375
111,944736748934
-1782,49580603838
-813,617243736982
4309,91399431974
8990,3450197801
8453,01244494319
4369,62497276068
2542,1194010973
4581,76525431871
6990,60189926624
6390,55551207066
3627,95567429066
865,123646497726
-2740,40452038497
-5601,67772713304
-5489,32592186332
-4054,50989705324
-1630,63021197915
1731,47047679871
3761,43375594914
3059,59284180403
1603,60591521859
522,649816095829
-2010,81612350047
-3606,09155380726
-2297,0801192224
-1263,06787356734
-1009,05241000652
-290,490284100175
17,6552140563726
-923,677254796028
-1022,74594378471
1287,79308089614
2962,78292421997
2846,61820682883
2008,67446798086
290,941250175238
-792,102017045021
-367,934820383787
-43,4984252750874
-1204,63873934746
-2378,9392554462
-83,8807546794415
5550,64569589496
9888,63364233077
9012,01667225361
4638,20500308275
2186,82360383868
3247,86994354427
4787,25068542361
3757,15936967731
721,416583716869
-1285,40854874253
-2453,54977323115
-3192,3193693608
-2505,41808021069
-1906,55843546987
-1145,27160212398
962,441451221704
2734,7465082258
2316,61476227641
1102,96780380607
780,037149190903
-691,213573262095
-2540,30648653209
-2517,00255060196
-2274,03502225876
-1989,14251223207
-823,567010387778
-33,1833220869303
-660,838954478502
-853,663502037525
210,445277661085
-86,3807464838028
-590,425907611847
22,6426347196102
-512,238498926163
-1515,64509296417
-1566,84258855879
-1637,67134003341
-2494,13832193613
-2315,7733669281
-557,529738128185
-611,112439364195
-1519,33887155354
-629,078891545534
-318,417083621025
-1371,2845363915
-2103,41261307895
-2528,93643175066
-3289,02919864655
-2663,91632342339
-146,287123680115
630,080668374896
208,30260374397
732,080922663212
192,295043379068
-1052,74077630043
-1282,05929470062
-1273,92706607282
-2295,54468911886
-3367,51186519861
-1088,86330926418
4013,88585940003
7176,42523472011
6209,66081470251
2893,82662793994
1197,05216225982
2460,92971430719
3982,4994032234
3162,68423435092
892,427449643612
-657,200134545565
-2513,22722256184
-4397,34793253243
-4586,54469168186
-3884,93209701777
-2173,96311751008
547,152506865561
2179,89286708832
1345,35939571261
150,453001827002
201,101847946644
-853,686500996351
-2167,28786058724
-1847,7660099566
-1542,7785744369
-1117,72809293866
61,392989166081
541,639136612415
-802,594791173935
-1870,53790464997
938,824534624815
6587,20691001415
9988,60690194368
8038,06752064824
3562,39817672968
1797,18834722042
3313,01404954493
4662,88151586056
3031,10889157653
-478,998577773571
-1592,969404459
932,316261619329
3479,77012681961
2633,18489229679
53,9971171915531
230,802348762751
3528,71926286072
6199,87986971438
5136,90953522921
1473,07940477133
-1537,63592973351
-4088,69005469978
-5634,49358566105
-4653,59062176943
-3320,35031020641
-2045,3785328269
229,117135733366
2025,17645207047
1582,49362698197
83,5280098319054
-335,985777825117
-1042,57468193769
-2188,61758330464
-2476,97716742754
-3062,5014616847
-3392,82804688811
-2438,92990215123
-1532,13806954026
-1673,75423443317
-1115,11310726404
434,769666999578
-105,202705472708
-1106,73231482506
-371,575811743736
-543,076121509075
-1806,83850601315
-2492,67943257093
-2895,50104179978
-3544,18508031964
-2747,27421861887
-274,867139428854
86,9963007569313
-833,346902519464
-61,4350008070469
85,8507583141327
-1446,61077070236
-2881,02148614824
-3839,07190413773
-4626,1712628603
-3466,63204711676
-126,635168969631
1324,40482093394
1254,11852128804
1905,87076321244
1198,30833092332
-495,294346064329
-1209,78204940259
-1486,30439158529
-2513,97827467322
-3695,23626211286
-1862,98227638006
3706,88812950253
8235,81733117253
7276,86287948489
2812,13447332382
555,078843802214
2144,14715778828
4362,03822870553
3856,590043962
1031,95732727647
-1130,17150008678
-2636,63661943376
-3554,98020576686
-2942,28289830685
-2243,28264510632
-960,681189149618
1871,33642236888
4105,07893714309
3615,34702068567
1894,12241724133
779,294148206711
-1625,47502458096
-4218,83120639622
-4411,27356985211
-3650,91795289516
-2301,75065824389
-133,730942860246
1092,37589304149
281,743519335985
-468,005300074816
1,1487093269825
-698,30312974751
-1361,36317886412
-548,54566386342
-571,36140024662
-1063,65201050043
-766,125317439437
-744,365692466497
-2027,06618496776
-2728,62941449881
543,722857236862
6905,81629125774
11217,0282812864
9680,14332342148
4668,67245540023
1950,56140375137
2865,29083918035
4227,52430127561
2990,0733115077
-326,273037523031
-1491,43036794662
1243,98968185484
4271,49514874816
3743,74105370045
909,558501720428
573,347861260176
3745,17113855481
6652,97033749521
5855,23236677051
2309,8088401556
-992,465527892113
-4453,89520287514
-7069,73932920396
-6620,53721466661
-5051,53223419189
-3175,71382683516
-456,111871555448
1465,52861702442
1090,1090093255
73,8356578350067
-87,3078280985355
-1401,44349087775
-2759,51881037652
-2279,30000039935
-2220,03155606985
-2637,68081492186
-2227,33963993192
-1913,1861371994
-2454,66015517712
-2008,5411901474
-211,386881798506
-541,964408859611
-1863,51506437361
-1255,7170689106
-1054,80802857876
-2325,17097491026
-3477,42993806303
-4294,4579128176
-5098,5938411355
-4193,16740143299
-1407,22472056746
-117,600154578686
557,836556009948
1997,18655893207
1215,58648762107
-1268,97589072585
-2723,85065954924
-3151,67255631089
-3785,1240464747
-4115,61382853985
-1199,1379160583
5069,18994800746
9412,32679206133
7605,15384432673
2468,5567933023
32,9824767410755
1532,92231334746
3566,97449039668
3062,54802048206
684,983146101236
-1074,00859028101
-2807,92525593936
-4074,15277668089
-3295,45964255929
-2261,73687270284
-1129,0437734127
1087,88894686103
2799,91648405045
2237,1556379199
793,933950990438
-8,74426528811455
-1998,65595586598
-3804,79130838811
-3286,98137286305
-2548,27680709958
-1854,31242439151
-405,175447851419
430,836619831622
-319,883175492287
-727,275127708912
-133,379722505808
-989,714522197843
-1702,96145638078
-828,059867799282
-845,652283132076
-1367,48724034429
-1065,62413339317
-903,334983594716
-1722,17877030373
-1869,48684200644
-806,838382452726
-1480,12103173137
-2607,11760201305
-1667,64927247167
-1044,50799691677
-1477,50856807828
-1603,84533198178
-1761,37084728479
-2471,90560972691
-1877,00863188505
368,724501371384
633,711001545191
-268,287576839328
506,559095352888
846,784610956907
-248,510695844889
-1186,41296540201
-1755,28162193298
-2679,21876737475
-2820,1243224442
-883,237599045038
653,75105625391
1318,64607925713
2406,32706257701
1852,90475806594
259,543710410595
31,3097352907062
510,787228956819
138,17870080471
-35,7525803148746
1205,73535892367
1376,33724249154
582,086074247956
590,204145252705
102,886494785547
-214,952484428883
882,31593298167
1936,08539399505
1489,78819328547
995,715509682894
1067,40177479386
-650,736319959164
-2025,96832353622
-980,837100595236
-396,393711030483
-383,166678220034
448,180290527642
1045,91186231375
228,131394743919
-195,744944393635
1581,06734445691
2807,62294155359
2509,22934321314
1976,28133115172
778,927209973335
306,617692112923
1424,91827746481
2176,74484913796
962,872858077288
-613,891222208738
992,357694357634
5301,73013087362
8436,12558210641
7780,52891901135
4504,58199158311
3074,58454546332
4938,87199126929
6903,65072390437
5795,22754642367
2431,29142281413
-285,902706384659
-3055,92379616946
-2514,98255725205
8830,11200076342
21011,5504992306
19866,9131887257
12938,9143684208
10634,7430328876
15680,5885021091
73220,8229948878
234641,823366076
435250,293356538
558042,179163516
539254,929269999
411102,874298632
306466,958120793
296059,80362612
316385,282538235
289579,913377762
242130,212165117
240722,752406657
261406,734535664
267644,557850957
248046,386235237
216098,096360683
247028,783628941
350650,703997672
423807,923478127
379979,570121288
265633,20010376
184881,975295305
147516,811439008
136979,023169041
143796,999519348
152297,155125618
206666,813179016
317492,880370408
392872,059491634
346801,28980732
222384,668723106
135271,564344406
106936,76482594
96729,5724401474
71488,3991823196
41466,7389354706
80259,8097610474
190539,457327604
270310,339378357
238875,132840157
144233,655585289
98281,7660121918
110421,692888975
128358,854142666
110129,250072479
57823,3189544678
51390,5026693344
116528,077896595
171585,307649136
141899,0854702
67891,2728767395
53171,0473661423
99892,3485388756
133799,994240284
99179,4042644501
17450,9055500031
-12320,546913147
36447,4641551971
83271,7669143677
62483,5861434937
22578,7115249634
49287,9648723602
116685,556024551
146829,654776096
96040,3387470245
2781,24566268921
-31169,2980709076
8496,57104873657
38745,7007288933
-628,531600952148
-56190,1049957275
-31622,9052143097
54179,4829735756
133185,288838387
160432,844299316
111622,319795609
50413,8302516937
43848,3246283531
55771,4918022156
15641,3047618866
-99221,2061576843
-257483,124410629
-404939,834927559
-494387,762124062
-507889,28767395
-463764,42370224
-398740,608329773
-341555,785056114
-303043,917023182
-278431,648544312
-256122,240116119
-231767,29107666
-210676,592990398
-201965,794180632
-214632,522948265
-253783,06590271
-313790,846816063
-372922,55002594
-403490,873212099
-387517,506599426
-324414,912633896
-235267,575820923
-154426,179671288
-109351,030461431
-113878,54057312
-167062,402344704
-247650,357002258
-322604,650940418
-363523,481285162
-356634,307806015
-304914,31882
-228277,722232819
-157421,150702477
-115491,142391741
-111740,058679581
-143592,64624691
-194028,289961338
-240548,623776913
-267207,171450973
-267690,093724966
-244277,192829609
-208436,472643852
-175646,333967686
-153135,730951548
-142705,056903899
-145364,232052088
-155739,760141611
-166238,033107758
-173846,195300341
-179017,863894284
-181284,812455654
-180201,519001722
-178128,038652897
-173188,172048569
-161707,245208502
-145866,8910079
-128430,661947906
-112784,351747155
-105479,567020774
-111248,233862281
-127642,562652349
-148332,45290494
-167695,361876011
-176059,040696263
-166176,961079597
-141875,698277235
-111207,308755279
-83427,396581322
-68667,4832378626
-72453,7730997801
-91062,2859934568
-116064,456339955
-139667,711499304
-151087,804845035
-143867,722633243
-122466,427434325
-94287,7965561152
-67865,2856095135
-52686,6816469133
-53833,7610617876
-67674,9881290197
-86172,2768594027
-103980,237585008
-114448,454085521
-112084,899757087
-98821,9524888992
-79241,3407689929
-59456,3056989908
-46911,7352768183
-45665,1195397675
-52846,2563894987
-62702,8547643423
-72911,9344914556
-79679,3240936697
-79171,0579572544
-73057,1808405668
-63178,3455281556
-51698,2260455787
-43023,4507020712
-40186,1910024285
-41757,525010027
-43953,6392683387
-46643,2616300285
-49366,4592676163
-49924,9615947008
-49384,8308152556
-47576,0846716762
-43259,7274484038
-38074,984647274
-34327,2133231759
-31745,2079654336
-28652,3912438899
-26786,72931467
-27080,9107046127
-28198,6582862735
-30795,2128996849
-33265,0683219731
-32855,812160071
-30013,5112849772
-26424,3034354448
-21778,0971804261
-15649,9779760838
-11664,9504035637
-10919,319667846
-11444,1538617611
-14252,6842438579
-18241,4774312973
-20174,7567023486
-19570,118419528
-17416,3239913583
-12816,8905681372
-5595,6685539484
474,707197442651
3156,63952927291
2148,87745594978
-1911,56774324179
-5486,09965878725
-6507,3926795423
-6151,89221692085
-5898,60892236233
-4589,36833256483
690,364040732384
8814,37574380636
14336,3906067014
13648,9740029871
9414,85822969675
7143,65460574627
8026,02424558997
9176,80127622187
8118,79349216819
5942,08196616173
6745,2338026166
11590,8053134084
16319,7132798061
16817,983207047
14530,0634974241
14385,1462157369
17286,4910298288
19684,3564094454
18571,1634016335
14949,9323895574
12386,9606857896
11343,2533781081
11644,6646986082
13828,6415651143
15892,3975980878
17830,5814688504
20684,6257055849
22677,8503113165
21934,1296063662
19920,9286612868
19308,9134779871
18892,2568538785
18597,7887813896
19928,0638318658
20894,6835121512
21270,7047243118
22505,9172419012
23676,5172560066
23290,4044250548
22087,1418212056
23577,4294902682
28807,0212946385
33371,2233807445
32789,1414414942
28688,7890399396
26677,0642969012
28364,2260452509
30545,7433741093
30208,9178266525
28235,8194846511
28390,637441963
31252,8040683419
33204,4449495301
31499,6279001236
28365,5511894822
28386,0831975341
31789,736208573
34724,7965846211
34087,5525765717
31222,292701602
29908,9005702734
30506,4871355891
31349,6643722951
31035,3148396313
29782,4847592711
30468,0535526574
33492,9583192468
35706,2659947574
34587,5054490268
31400,5257250071
30208,9494583309
31106,4028708041
31651,4681740254
31494,9952930808
30752,901570797
31083,9294934571
33343,4536475986
35168,427172333
34369,0018911064
32240,5368548036
30949,99710536
29110,4383925349
27476,09965083
28276,0069827437
29270,6692631245
29398,1466220021
29887,7004646957
30309,1213136315
29896,1124631166
30356,1372041106
32184,2721544504
32295,5505755395
31563,9261531085
31775,0203772783
31000,0670832396
29667,6985706985
29240,760555625
29043,0494996756
28205,785399586
28151,8531479239
30972,2864759862
34224,7079093307
35474,6689595208
35265,6873772442
33268,5486918092
31023,2884422243
30460,0127423704
30531,3045098335
29626,2832001746
28582,8160116076
29752,5876989663
31531,4662099183
32064,7419594824
32225,2252424359
31257,8230959773
29996,3115269244
30278,0244059712
31015,1025703847
30356,9700236917
29020,1946739852
29195,7601870298
29529,4760804027
29190,8816340342
29396,7783088088
28825,8307924569
28014,8213179111
28787,038617149
29980,3100545034
29628,2521784604
28351,2187659144
28268,2945398092
28272,5581817329
27927,9293567836
28293,9413785934
27744,5685115755
26838,4565623105
27476,1326994598
28503,2736847401
28105,2026837468
27462,931507498
27760,5262780488
26877,4403880686
25480,245075874
25075,0586692989
24473,0897562802
24483,9985873103
25831,445209831
26780,5368760973
25794,0293435752
24494,7711023092
25753,8665758669
28595,3316453695
30308,7828588709
29304,2843392789
26502,1581141353
25368,4876821041
26692,6129544824
27742,6797092184
26164,0003154576
23266,8347482681
23192,4277628064
26653,4648120701
29640,7713054717
28667,6612949371
25396,0572938025
24599,4870431125
27038,4854494035
29068,3308150023
27531,0840679705
23294,8187523782
19967,0359970927
17849,3416722119
16610,069668144
17295,7747010291
18315,2284655869
19543,6090187132
21922,3328283876
23692,8609324396
23027,6216107309
21441,2343944907
20490,5057028532
18009,5729690045
15439,8200995475
15756,3329797387
16591,1717746854
16714,4826935828
17199,7889598757
17487,013828814
16848,9945462644
16989,087516427
18456,3016587794
18160,5753987432
17151,5979994982
17740,6280445457
17448,1453419328
15842,6732633114
14786,2916292548
14204,3943539411
13519,6368669569
14278,9073855877
16525,5817297995
16492,8525024056
15054,9983850569
15470,6233251095
15687,3083406389
14222,9229045212
12734,6935292333
11863,2528442889
11203,0993911028
12131,7814170718
14884,9064992368
15724,6862071007
14873,6334033608
15166,5961448252
14858,5899958313
13085,1282102168
11615,2739214748
10815,1785732955
9918,90455514193
9835,69566050172
12094,3095476925
14263,9474607706
14878,7206583992
15202,0080763698
14201,6161912978
12667,4677147269
12651,8980385959
13199,7893396989
12589,0020870268
11895,4922659099
12175,0338790715
11013,1983166784
9462,10910435766
9958,50846150517
10444,4713846445
10514,6310171783
11374,1208856851
12061,3462861031
11279,6765175462
10504,6419640779
10996,7572080493
10385,8897448406
9062,26158468425
8765,93336305022
8394,94997918606
8450,39512711763
9578,61926831305
10229,2272234336
9075,12349087
7886,74751204252
9042,0118060112
10453,7519580573
10446,3158462495
9728,4544120729
8530,14841422439
8407,55333995819
9824,78353031725
10624,0110824332
9137,42145976424
7079,50753584504
7428,30377700925
9376,69246229529
10646,492799595
10014,1612595618
8107,76099252701
7841,92320355773
9717,87636736035
10975,0889494866
9523,87738406658
7028,06078851223
5370,49572104216
2724,04627139121
722,72117869556
2076,52902647853
3943,88742858171
5024,38534554839
6388,03527577221
7156,83236637712
6163,91329830885
5091,58415824175
5573,97146478295
5111,45616229624
4035,82968263328
4597,83620688319
4701,9298581183
3967,30694663525
4049,80748840421
4381,6291205436
3857,68931061029
3732,20133107901
4595,91388985515
3672,0412850827
2089,16769367456
2426,2534032166
2531,78270998597
1736,5688624382
1547,50456093252
1723,77197340131
1434,12689960003
2058,51531675458
3919,66639435291
3631,57652434707
2058,87410104275
2267,16400554776
2396,96319490671
1264,40971055627
250,317742317915
-338,455421119928
-1076,99146685004
-987,602451235056
2455,49313488603
7614,06963008642
10254,0421535373
9331,80466639996
5957,47400188446
3270,01559302211
3263,81222720444
4126,30534216017
3445,17523911595
1580,2110543251
881,88954603672
497,506601721048
-233,515133954585
147,910164862871
411,721285164356
586,24749737978
2013,98372860253
3448,94139971584
3089,82667708397
1796,49556487799
1435,1672360003
504,954095721245
-705,423646822572
-172,599642306566
314,986036211252
464,196033298969
1577,37971645594
2542,85929530114
1994,69528952241
1359,44351714849
1488,31962737441
-28,7483555525541
-1487,87955376506
-463,717082053423
250,330036967993
-9,54367086291313
325,892472177744
710,81110265851
209,067894458771
284,697501152754
1288,87477400899
46,4000924527645
-1980,32477095723
-1314,2702421248
-289,752604216337
-737,476172447205
-1259,15766398609
-1520,36584852636
-2257,57060745358
-2217,87954735756
-148,158914446831
1069,56220531464
846,329355530441
1297,40390923619
952,905545949936
-347,211879491806
-837,491483286023
-892,608425155282
-1706,02527526021
-2396,07090383768
-986,860535174608
756,895943507552
1524,3738501668
2199,27889254689
1480,64297181368
235,87155354023
514,997531622648
1277,60055676848
900,767354995012
473,894047170877
640,378386259079
-1345,94610206783
-3907,06627848744
-3561,55221426487
-2340,70544612408
-1749,47592002153
-962,436481833458
-490,947733938694
-1098,037350595
-1094,8114400208
102,199041992426
-379,303538277745
-1167,52625027299
-159,021966308355
-7,41775354743004
-851,07997277379
-948,338377833366
-860,448173105717
-1645,102075845
-1657,23961499333
404,790697336197
1463,65912766755
901,999072156847
357,877585619688
-680,72606164217
-1191,43457999825
-356,060794375837
219,006589077413
-967,323677241802
-2728,8788190484
-1836,74890491366
833,590537525713
2429,79863332212
2660,94356814027
1435,2072814703
533,056348830462
1533,78553783149
2611,26135709137
1554,80343610048
-1041,98793751001
-2165,02066960931
-1997,45444512367
-1937,77518461645
-1609,78228512406
-1925,8927116096
-1927,06493270397
-158,008488081396
1658,64414253831
1351,83026796579
-539,982575118542
-1056,9103872776
-628,768277555704
-976,005861580372
-1435,03125113249
-2310,26806902885
-2607,37523949146
-1087,50433294475
542,068508297205
365,715337961912
-286,968019753695
232,483542919159
-276,180255040526
-1710,24439643323
-2386,78477630019
-3126,71075001359
-3061,5035764873
-1531,71221472323
-406,666455686092
-1162,98822960258
-1779,93953365088
-168,69476172328
780,125050976872
51,4324346929789
-601,524418622255
-1445,54983353615
-1655,95671203732
-711,538888812065
-383,189944572747
-2009,97793722153
-3648,4666915834
-2187,27650123835
879,84145757556
2841,22612918913
2884,68908318877
1057,19633820653
-109,284349143505
625,306976094842
1132,38092648983
-327,754183918238
-2003,78014007211
-2390,17004099488
-4014,91322670877
-5507,1774969846
-3964,13041692972
-2292,74923399091
-1876,77810302377
-1307,06518131495
-966,680060446262
-1782,79052180052
-2211,16498807073
-1131,2694837749
-1511,98504675925
-2765,92557118833
-2139,38755998015
-1768,90119430423
-2396,31446814537
-2413,25536069274
-2161,7881219238
-2643,59321853518
-2422,39192426205
-629,317747533321
-196,646175339818
-772,715862601995
-593,884011000395
-1349,87027835846
-2502,34271201491
-2573,49876110256
-2458,89415195584
-3172,22802442312
-2993,48330903053
-592,011368870735
796,174216076732
625,757780537009
641,738614439964
-348,307803332806
-1413,90221244097
-1001,8739117533
-452,758187189698
-1401,76883220673
-2780,86700832844
-1479,35154634714
1290,35372149199
2595,01914805174
2445,75855723023
859,404643267393
-290,604487925768
714,238964274526
2003,80654332787
1212,11783280969
-940,22583976388
-1748,57179149985
-2187,9862036556
-2775,97081069648
-1970,10680189729
-1536,79705670476
-1452,06166681647
62,333409011364
1732,11671961844
1531,10816720128
473,429609179497
-24,1745249629021
-2076,14081682265
-4460,83196224272
-4184,71786105633
-3302,07593011856
-2837,78254765272
-1645,88550721109
-535,893588684499
-787,177724421024
-873,171096295118
23,871432363987
-1190,17594178021
-3095,66077877581
-2449,7784588635
-1763,29711532593
-2178,69950681925
-2187,86731113493
-2080,52157541364
-2648,83382928371
-2306,31193721294
-585,046933740377
-976,866249233484
-2489,64109329879
-1823,6556392312
-1134,06421551108
-1801,30192571878
-2464,95116722584
-3029,46245400608
-3925,35650864244
-3395,26169294119
-1042,684877038
-643,057405278087
-1387,21241365373
-187,066030323505
446,321578472853
-765,586820244789
-1916,8139205128
-2580,26792283356
-3523,92594921589
-3859,22986346483
-1265,80515211821
2147,62779721618
3383,95135787874
3224,60543817282
1662,18261176348
36,1030050218105
310,959807783365
1169,74750065058
588,335278004408
-404,094118237495
-309,808973193169
-1465,10649465024
-3113,69615611434
-2408,99078440666
-1387,11920720339
-940,406440883875
191,149050407112
1107,76658131182
446,424716740847
-314,825293987989
-81,2413775622845
-1615,51327595115
-3799,42377013713
-3265,55821746588
-2100,39443302155
-1897,41467872262
-1507,29138698429
-1186,9306140691
-1785,44913783669
-1592,02946025133
-6,55495896935463
-282,398689448833
-1086,29823319614
34,8130329251289
229,342147767544
-793,706147611141
-963,167560912669
-706,340121500194
-1409,11338928342
-2368,76400062442
-436,232093334198
4726,62175547332
8770,94470657408
7802,63144314289
3412,65762400627
1039,68687054515
2495,43563187122
4669,09764795005
4177,48286867142
1139,54176059365
-592,988396018744
-345,246783830225
-459,581059657037
-1055,2719887197
-1692,26085963845
-749,185500144958
2432,08365601301
5090,86562211812
4640,41210377216
2388,76709058881
499,639691621065
-2692,58040229976
-5892,4872571975
-5645,50424781442
-3797,39278379083
-2146,72025069594
-311,299686923623
763,794189542532
30,3004742562771
-733,615682959557
-443,876803547144
-1696,71960055828
-3305,88482965529
-2513,83271986246
-1587,12590536475
-1954,6660220325
-2415,58509203792
-2822,02587591112
-3545,52609822154
-2797,91766536236
-265,810707867146
231,431288152933
-625,112283088267
212,16422945261
525,104262292385
-1058,52180078626
-2713,74916608632
-3729,59433345497
-4643,70440202951
-4157,76826572418
-487,082063317299
3435,91106298566
5055,34100079536
4987,6132324636
2842,3572511673
378,592898547649
-175,657217934728
117,610313221812
-628,931678265333
-1934,79473859072
-1192,09657025337
475,531650826335
1034,53579451889
1275,66376152635
594,879992365837
-114,466653764248
927,541086852551
2321,31916963309
2024,09039849043
1061,27043059468
875,956466168165
-837,551701188087
-3034,71125940233
-2586,85326775908
-1548,09098818898
-967,361764281988
302,984878003597
1369,58666057885
859,824654579163
137,703682094812
322,8278003335
-872,572128459811
-2214,73697210848
-1496,1418915987
-1050,16156667471
-1243,99153929949
-749,735614672303
-340,140840798616
-1016,0914542675
-1114,38466334343
443,323139548302
700,533158928156
-97,6283619850874
72,8487691581249
-279,442065089941
-825,176566749811
-333,497633218765
36,073179744184
-1036,71773058176
-2202,90991598368
-486,388841867447
2977,28223727643
5108,52001649886
4940,66739478707
2688,32362553477
1030,19673416018
1682,34092615545
2709,21196003258
1798,83911091089
-522,112000733614
-642,643840759993
1872,26113894582
3592,57485217601
2813,58722221851
638,29891332984
278,528015166521
2768,61237725616
5162,98565177619
4633,62378904223
2214,89888936281
86,487440019846
-3088,9198204428
-6043,03246477246
-5602,84527483582
-3651,01267290115
-1906,25104731321
14,3864421248436
1216,04490928352
612,932158499956
-249,458649992943
-53,1582852005959
-1038,56162074208
-2233,02311424911
-1451,97757345438
-1042,58700284362
-1597,07167419791
-1711,62029370666
-1725,26662750542
-2291,27168920636
-1865,21052059531
42,8108096718788
-71,7444523125887
-1524,69658323377
-1000,2128059566
-410,180273830891
-1353,14291492105
-2404,81941647828
-3069,62401068956
-3791,44470855594
-3001,97783765197
-144,762736856937
998,350794479251
723,969802632928
1638,60809764266
1386,19832786918
-396,373522788286
-1427,57945273817
-1716,5494280979
-2402,95388641953
-2963,1131053865
-497,445705384016
5284,49221813679
9892,21106110513
9249,35944843292
4707,95446443558
1777,13068604469
2731,12029859424
4775,00436550379
4594,49379441142
2530,81251385808
635,957635134459
-2280,5172021687
-5130,33243042231
-4887,73296138644
-3334,62296646833
-1684,95392334461
758,204673454165
2624,91913896799
2220,11919769645
944,083885639906
598,535443663597
-790,525179415941
-2465,15012244135
-2048,23418724537
-1476,3995437026
-1161,92897805572
-45,9231255054474
743,692252412438
-9,93839997053146
-604,413930207491
288,868298560381
-100,469850361347
-1128,04735710472
-483,61270159483
-227,568323403597
-634,455843985081
-402,196690797806
-323,190136022866
-1429,84513029456
-2239,83255326748
-130,439685225487
3027,53450427949
4596,40863218158
4547,55018243194
2631,05437386036
859,3230214715
1083,92155694962
1725,24134395272
757,036641836166
-1162,92079791427
-614,134831249714
2335,78629250824
4090,87656894326
3225,568369627
895,165200322866
133,312671780586
2017,90557837486
3928,35916788876
3270,37859725952
1083,61832329631
-424,075439631939
-2840,29823757708
-5325,6190405786
-4789,46139529347
-3098,13681486249
-1780,93242776394
-157,810967445374
919,016138911247
316,558167219162
-279,894285857677
362,039953410625
-493,187676459551
-1617,09412254393
-459,149669855833
96,9580894112587
-645,740437716246
-859,027162119746
-884,20235593617
-1612,88078945875
-1573,43183332682
-136,231981903315
-631,581143036485
-2214,10418434441
-1666,44136577845
-1146,50179442763
-2012,75191566348
-2661,13785342872
-2833,92936766893
-3245,40392670035
-2548,86419659853
17,0632052123547
966,566922128201
461,119967602193
1160,72216781974
914,183858931065
-706,783072829247
-1545,50631837547
-1702,34593309462
-2379,7190349102
-3087,42291966081
-772,618434220552
4884,19122235477
9344,85065022111
8757,62782537937
4373,98651903868
1540,09728652239
2593,81359940767
4634,61491539329
4341,28128018975
2214,02524575591
301,253935456276
-2647,2196329236
-5379,48148156703
-4848,70462372899
-3119,02444526553
-1516,88683241606
778,043085679412
2557,29687647521
2168,71426638961
886,237332761288
315,354564875364
-1260,61589244008
-2615,62414839119
-1720,45539629459
-1133,39934575558
-1206,89580032229
-421,462923273444
334,26329407841
-249,7756293118
-668,486330240965
838,244918972254
1472,46428346634
597,334731638432
321,589891701937
-402,408717691898
-1144,22338974476
-569,35914067924
84,8187337070704
-735,934909075499
-2033,98789650202
-1182,56768357754
326,04370637238
806,968720056117
1411,9829737246
988,487803518772
-125,901381582022
14,2951495945454
578,636608593166
-130,728024154902
-1448,21148914099
-60,0406511425972
3561,91857638955
5365,91412130743
4158,76308247447
1403,35024777055
119,067788392305
1523,88787519932
3182,62733194977
2589,20948752761
722,458478093147
-386,707216233015
-2435,73906987906
-4638,65773899853
-4012,7201910615
-2433,64093104005
-1264,01067966223
207,207378298044
1045,91544843465
176,596549242735
-738,837768256664
-484,893840610981
-1516,47106398642
-2801,88124896586
-1971,90866693854
-1351,77366766334
-1622,87981086969
-1441,67920991778
-1331,31981121749
-2093,40567550063
-1985,75159069896
-83,7052307426929
162,906603738666
-1089,44338164479
-771,2121052742
-431,851697742939
-1269,03022745252
-1976,11253781617
-2447,90249814838
-3314,79627344012
-3141,22589060664
-1293,64879462123
-812,806280091405
-941,656744599342
459,199000060558
646,593420267105
-816,897020816803
-1660,06746429205
-1817,83519917727
-2418,93532511592
-3036,40165233612
-622,158530384302
5549,15146164596
10785,6371663213
10207,9467773139
5092,60773232579
1715,78696531057
2787,1914627701
5232,02880854905
5327,6845549643
3222,57738903165
1248,06095209718
-1581,97191883624
-4540,07394049317
-4621,08723881841
-3241,36763709784
-1419,62994283438
1425,83695334196
3626,76563338935
3271,61921739578
1678,59694746137
647,857920974493
-1519,1617334336
-3516,54873818904
-2846,02521818876
-1908,1548101306
-1470,4410738945
-350,0660405159
509,625171013176
-128,992699176073
-667,859029620886
371,425682514906
317,96263730526
-632,135104000568
-380,940765529871
-626,53776422143
-1279,82517889142
-976,473526671529
-676,66772916168
-1605,41210207343
-2374,42266646028
145,586371004581
4510,40306918323
7043,4637054652
6701,09170234203
3823,40782275796
1456,22612211108
1720,03340828419
2624,96943286061
1662,57271105051
-558,238217532635
-1091,32386541367
-881,588143393397
-1356,89224515855
-1142,59855794907
-1036,15373972058
-787,918164521456
823,582328900695
2272,75747927278
1641,91725283861
158,087430924177
-153,348160177469
-1435,31353925169
-3318,00020967424
-2759,6925188005
-1630,22046232224
-1286,79670512676
-550,695048645139
84,0556524395943
-524,475770115852
-967,446854859591
-148,191618442535
-658,740821912885
-1569,22560554743
-634,529155939817
-376,726336359978
-1276,29654920101
-1529,87249170244
-1452,42950485647
-1982,57566487789
-1794,47411215305
-325,68902811408
-763,161343917251
-2306,24094247073
-1717,38522863388
-1004,23186480999
-1772,870287925
-2543,78538607061
-2899,11955538392
-3405,29103699327
-2699,58755999804
-406,168934434652
202,546056434512
31,5562573671341
1365,56216302514
1331,46747162938
-430,613738924265
-1392,86483366787
-1465,62678355724
-1913,40787085891
-2302,68772909045
333,23391148448
5750,17708259821
9296,01051508635
8206,40093621612
4104,63240140676
1553,3874578476
2595,53489246964
4577,70508778095
4226,25808995962
1787,97193971276
-415,327757805586
-3143,85368818045
-5676,71584025025
-5341,30908215046
-3710,77005419135
-1909,57090470195
645,129483610392
2567,24270434678
2196,87530988455
851,863739520311
129,681182980537
-1880,6632425189
-3748,87131246924
-2735,26727443933
-1559,2679771781
-1328,39400681853
-593,830221742392
43,3296143934131
-570,859558165073
-848,859266996384
900,591255009174
1740,87702037394
800,175551451743
171,638461619616
-687,763890087605
-1289,10351270437
-748,311230286956
-402,423285253346
-1511,46033328772
-2715,51621106267
-959,262874871492
2358,24395290017
4214,53981204331
4438,84986639023
2860,17769265175
1286,00005686283
1569,70904430747
2209,15333080292
1151,54415762424
-1025,38633537292
-1293,89691859484
-293,642621785402
71,8916226625443
609,568670630455
417,527494341135
-51,3592417538166
1008,61889390647
2421,47643213719
2138,75249555707
849,404109179974
421,66980701685
-705,387507423759
-2179,20100586116
-1664,68212342262
-1140,10243916512
-1302,06168758869
-478,748599126935
655,521724514663
498,454159647226
105,579011768103
672,309904664755
-134,197265252471
-1491,98156108707
-1033,84718564153
-902,716135829687
-1494,06412127614
-1193,374908939
-605,136697024107
-844,367957502604
-623,901575893164
617,977686077356
-309,876378282905
-2611,28492284566
-2604,9855543077
-1748,19154176116
-1984,20881637931
-2423,76171395183
-2782,14476142079
-3530,288520962
-3063,56295856833
-597,877477377653
391,907034099102
-50,6912251859903
720,924998402596
847,17832031846
-355,758460789919
-1153,02256673574
-1595,56833054125
-2601,96272951365
-3248,82961979508
-428,560469478369
5853,11646603048
10820,1769712567
10425,9380343258
5963,23784959316
2864,50060856342
3546,0160201937
5320,48049498349
4800,02811381221
2058,69997698069
-631,024740070105
-3775,02071993053
-6261,19324810058
-5435,87692525983
-3388,64451107383
-1494,32127347589
992,626940906048
2836,16730575264
2476,09862831235
1310,04633444548
1070,71199962497
-405,110138624907
-2380,64168304205
-2005,81322839856
-1247,81307828426
-1058,81256121397
-199,445602729917
623,521620936692
177,619190216064
-32,9040353000164
977,23215726018
204,598889634013
-1261,57434402406
-608,181538432837
-251,463720023632
-881,698353648186
-920,244404003024
-770,90415469557
-1494,67853820324
-1786,32362961769
423,607918709517
2527,91585764289
2805,7761657238
2699,35060361028
1465,51289305091
-34,0829596817493
-48,4347783476114
340,160375535488
-509,705536812544
-1863,74172869325
-831,799263745546
1531,60830372572
2606,33930722624
2764,00821578503
1689,00573024154
571,922960966825
1286,40253038704
2432,76820538938
1841,90570396185
284,725786566734
-162,949208140373
-1250,97005280852
-3005,1306649372
-2610,87806299329
-1626,43661737442
-1224,68814089894
-191,647408768535
812,491124890745
409,520577162504
-176,304650455713
452,183667242527
-104,872071459889
-1401,35032365471
-953,553949356079
-619,04056096077
-981,063407152891
-662,2839563936
-268,715181492269
-846,493883550167
-918,054351508617
354,945777148008
-340,316299289465
-2398,72508855909
-2114,95075628161
-1122,78123900294
-1406,22594428062
-1868,46624793112
-2173,53481126577
-2945,36938101053
-2687,71233856678
-606,249626249075
39,8012364655733
-334,222782999277
688,972063809633
780,553655594587
-563,388287931681
-1258,48427368701
-1345,97870209068
-2026,26458698511
-2810,67524445057
-653,044290721416
4063,41095489264
7009,42489533871
6329,16982111335
3188,94839632511
1077,6613497138
1966,79376007617
3641,05720087141
3310,22122699022
1421,71126773953
231,088705569506
-1352,7881873399
-3206,17875637859
-2864,17636060715
-1722,42893508077
-698,734569430351
1095,77080230415
2537,74990295619
2011,19013336301
717,834631413221
372,142630726099
-1000,1783824861
-2646,41241681576
-1890,05698865652
-903,891101390123
-720,917152136564
31,7587795555592
755,590488694608
267,167797088623
-29,3016232848167
632,295239239931
-487,837384209037
-1897,39867522568
-966,160413980484
-437,646006196737
-1060,36042585969
-1100,32118955255
-860,845530502498
-1417,81850042939
-1396,01828125119
1007,06608760357
2882,19358533621
2867,21583307534
2771,73088622093
1697,71548622847
197,86872035265
73,983316168189
415,167276054621
-416,029808759689
-1568,25874012709
-374,970664173365
1520,64661584795
1734,09929072112
1534,7842220962
818,880914092064
185,083997488022
1031,17767621577
2016,21560560167
1284,96222653985
-142,21674695611
-260,919163525105
-844,536372333765
-1879,1786506027
-1011,08365368843
-151,525791198015
-256,447982698679
305,233321979642
1135,83546229452
753,503891974688
63,7306565344334
349,689573466778
-593,732229307294
-2045,87523955852
-1368,81520849466
-721,972268462181
-1029,89029327035
-727,737834572792
-187,622510261834
-494,424595534801
-369,461503475904
732,173596590757
-267,309594035149
-2305,79064367712
-1863,9933437407
-819,558015972376
-1110,64566904306
-1551,23290279508
-1763,15509273112
-2334,23675176501
-1814,61323797703
221,996014565229
185,619551628828
-1181,39343462139
-581,232571959496
-96,2979768514633
-990,137963443995
-1667,76078495383
-1937,81311882287
-2615,29800093174
-3071,81130218506
-551,853696733713
5253,81719230115
10161,8242426515
10048,3233374655
5731,01631554961
2489,61800011992
2953,0076404959
4654,91182141751
4276,91906386614
1703,37107121944
-644,04382699728
-2911,57010954618
-4687,6021456793
-3962,58621877432
-2472,6599162221
-1152,95441266894
1071,76049293578
3077,99018204212
3016,19687172771
1849,66519406438
1002,28251791
-1307,95372600853
-3743,28060998768
-3389,01372826099
-2330,85918015242
-1876,92988845706
-994,375359237194
-213,143387012184
-555,001454979181
-565,689294278622
485,119185090065
-203,01625315845
-1396,38558146358
-630,731633394957
-389,065606355667
-1194,84801143408
-1412,66350281239
-1410,21980823576
-2097,02282387018
-2041,99319013953
326,76686540246
2016,60289816558
1901,28776110709
1907,41460520029
1004,52666801214
-405,184375703335
-636,041404724121
-487,121316179633
-1335,42077827454
-2281,08000534773
-415,242518395185
2935,27949625254
4447,64235718548
4154,13294020295
2468,74538329244
1137,74595075846
1750,6518265903
2658,55545110255
1752,72331660986
-316,473500043154
-1163,84849762917
-1802,47906208038
-2823,17843798548
-2300,7949821949
-1443,41663503647
-892,698880404234
493,233469635248
1731,34178544581
1297,85428565741
339,286539256573
366,048319160938
-621,247946619987
-1939,92342594266
-1153,40747201443
-485,350863367319
-730,386827111244
-302,312853381038
273,361851237714
-192,255800873041
-582,774687349796
-219,129146546125
-1564,3122612983
-3014,43310058862
-1783,81652638316
-817,564957499504
-1350,66575849056
-1532,695578143
-1290,04179155827
-1485,54802274704
-951,148645102978
867,649340987206
866,564990863204
-577,802802927792
-403,681510388851
-86,7475863695145
-1058,35673651099
-1863,24947594106
-2061,54589521885
-2467,84921646118
-1920,72075748444
295,801229447126
912,849640578032
194,549857985228
873,448427349329
885,889171570539
-413,911585956812
-1004,43594652414
-959,27312117815
-1513,54514849186
-2234,30053040385
-1163,26981437206
421,737056657672
981,403377238661
1520,74690899253
1073,52680763602
9,79688686132431
274,592012450099
1163,11430507898
932,8997156322
355,631457835436
1106,90105941892
901,229371547699
-602,917505152524
-660,789520293474
-341,235854715109
-289,101906776428
604,357568055391
1462,02020833269
933,071449503303
277,591928124428
519,404135495424
-756,885440796614
-2138,35857433081
-879,897720992565
253,859084695578
145,572875797749
400,447901368141
722,876814030111
39,1898693442345
-425,551414787769
943,958581477404
1577,37544603646
1049,62157993764
1560,24601683021
1378,82483389974
406,177837252617
560,21454064548
1112,65424918383
500,361076325178
-505,345135569572
274,019074231386
1184,7816170007
922,26245354116
1020,02525940537
594,368873536587
2,35451972484589
867,171751961112
2004,4891988039
1542,62162598968
294,329018771648
229,735800027847
-383,114588528872
-1762,55152115226
-1331,73556497693
-537,005581229925
-469,897853374481
193,019679218531
1006,81354822218
589,821478635073
-112,876680731773
437,707458615303
94,9317013919353
-871,186562128365
-10,2452664375305
486,48667678237
-145,146284848452
-38,9698052704334
418,684637062252
-9,19116389751434
-91,8296813368797
970,205619037151
301,649985104799
-933,189666591585
94,6267247796059
641,237306803465
-272,09842094779
-608,390126511455
-407,971854582429
-806,430840164423
-743,860153049231
523,227637439966
-92,2371110022068
-2176,04514434189
-2101,74078124762
-1217,51179122925
-1516,68184164166
-1943,31123131514
-2042,47450937331
-2447,51909068227
-1818,01896727085
544,725169688463
1042,15493656695
-34,6736368201673
648,204796075821
1167,99960666895
256,284760057926
-414,914890259504
-726,728524319828
-1628,14393633604
-2382,17169317603
-110,149792015553
4917,01256470382
8678,89194460213
8404,05443802476
4794,67550235987
2168,14459690452
2938,14036083221
4728,87324023247
4364,56514832377
1766,36597013474
-406,432452619076
-2375,72314636409
-4387,01850242913
-4223,84164354205
-2886,40257698298
-1332,06857347488
1018,95958799124
2799,16835231334
2443,33620792627
1288,33861067891
779,805207371712
-1034,99202550948
-2864,53961354494
-2030,63677179813
-983,460846185684
-877,439507484436
-328,932342603803
278,969773665071
-201,058033674955
-482,378869742155
864,01598161459
903,412086367607
-551,877578169107
-569,501478224993
-493,874175220728
-1000,46140959859
-796,565969601274
-473,547073610127
-1243,64189907908
-2273,22758835554
-1115,38695520163
853,455558925867
1544,20383167267
1856,86105877161
1104,24381026626
-272,658346951008
-394,371221140027
128,767637707293
-253,19582927227
-880,420955508947
134,282868415117
890,451569020748
310,651683077216
459,468436598778
345,219922274351
-447,295060485601
-274,276180490851
319,252984419465
-190,297081410885
-974,246790975332
-345,184822678566
-248,527192398906
-1103,49804516882
-606,176381021738
-137,527098923922
-535,48632311821
-308,957318425179
247,77054644376
-131,551446676254
-548,615385264158
461,102607935667
394,633523508906
-956,856730677187
-527,146281450987
60,7235027849674
-545,497037291527
-680,861084923148
-374,915071025491
-871,569524973631
-1090,30712762475
866,911330521107
2317,16463398933
1633,16351982206
851,626159906387
-94,1804868578911
-651,293514043093
117,129978492856
766,49377182126
-207,620779663324
-1645,74879986048
-904,64506688714
651,603958234191
1308,46122850478
1718,39580231905
1054,80151605606
397,337322860956
1312,87527534366
2266,96198508143
1398,25064641237
-673,801602125168
-906,26152870059
287,448890388012
689,083497203887
791,039600014687
315,019316673279
39,7548434138298
1367,51556570828
2847,13029880822
2427,78980192542
834,02952221036
328,749372363091
-520,643376275897
-2039,30301391333
-1740,00268048048
-980,20550891757
-653,815729618073
469,472810551524
1536,85343042016
1058,48620146513
310,07090139389
623,865353405476
-460,912849366665
-2223,73191942275
-1740,81526702642
-978,822323411703
-1179,31052875519
-992,861198291183
-628,383244290948
-1086,5722360909
-1091,51368397474
261,20985943079
-94,3156078904867
-1914,2589103803
-1801,15238642693
-1120,9343521893
-1642,5427993834
-2235,40852788091
-2535,01925911754
-3186,0531898737
-2891,12035945058
-774,361008942127
20,2394037842751
-277,245362393558
894,969332367182
1111,75492569804
-423,62567782402
-1399,22481428087
-1617,9714115113
-2172,32252705097
-2449,07237967849
312,236744225025
6040,99150174856
10352,595817931
9590,16457647085
4997,71884593368
1860,00773727894
2555,71664917469
4395,58069843054
4110,50418230891
1908,79349732399
1374,61236912012
3282,48394051194
4883,28215720505
4102,11853978038
1656,05555993319
1357,88762071729
4441,20394660532
7426,30122006685
6888,27828842402
3601,48561027646
-16,1626033782959
-4670,41975362599
-8398,82741311193
-7880,67700403929
-5335,92886325717
-2577,20356401801
493,12385520339
2376,62524638325
1662,78680837154
-49,9521416127682
27,6396237909794
257,315140575171
-468,096007913351
-505,033397078514
-858,687711983919
-1379,95720827579
-803,732165053487
-267,940981857479
-1186,63561633229
-2319,41555535793
-1043,50569182634
820,119379654527
1234,93760575354
1336,06172317266
466,240407645702
-785,930872946978
-746,60805682838
-359,603647008538
-1162,59869349003
-2522,10966336727
-2125,54122638702
-1059,67474465072
-642,697238750756
337,81497707963
411,897431224585
-752,478094875813
-1068,02763897181
-683,474088430405
-945,226378440857
-947,632421404123
391,447931528091
163,494821429253
-1705,82828614861
-1903,5389213264
-1546,37676540017
-2005,14818483591
-2122,34037101269
-1901,33666756749
-2206,83845120668
-1919,03930175304
-308,518517553806
-252,430526211858
-1195,71114542335
-408,619630366564
-47,2753582298756
-1116,10005515814
-1748,89240765572
-1832,14870084822
-2331,42225730419
-2010,42756021023
542,16564899683
2115,28521467745
1575,31579907984
1390,91202241182
745,028890699148
-424,655267685652
-582,472333341837
-405,043134789914
-1258,94602665305
-2059,73461535573
-797,108888864517
305,841010197997
156,967385005206
636,783078968525
605,876256853342
71,7237495183945
564,094908550382
1160,96778102964
274,626970052719
-1377,24533808231
-626,320776075125
2006,29484410584
3369,07639395446
3046,73455604911
1480,65611022711
590,617805749178
1913,06879734993
3530,21566381305
2991,57264301181
1259,37839752436
193,149571061134
-2256,58947579563
-5210,36119258404
-4934,76461982727
-3029,42212346196
-1415,40281951427
456,225882440805
1776,89963175356
1175,99130940437
-64,8664188981056
-189,785322695971
-1215,85970798135
-2539,00512113422
-1441,02807459235
-353,831607490778
-677,180378556252
-656,177740007639
-295,428924553096
-727,91317024827
-846,420687556267
1027,58659005165
2184,970723629
1487,08834773302
1031,06878590584
101,982664525509
-978,235729217529
-828,853937268257
-455,522179111838
-1197,6966457963
-1863,2589816153
-445,826469838619
771,521282061934
634,931650325656
911,878757894039
466,74788287282
-429,938798367977
-45,8637122064829
672,924265302718
45,4153191745281
-1492,09218329191
-1242,06625396013
162,911831468344
766,273393072188
1344,23122519255
1023,70204630494
53,7960394918919
393,399150922894
1326,35319595039
1035,29115957022
71,5533484518528
384,405495792627
138,934127792716
-1307,83265627176
-1275,09873056412
-955,196408033371
-1275,00326171517
-690,843247890472
281,369993291795
53,9069154858589
-644,626974523067
-46,0279811024666
-14,6956366747618
-976,11688837409
-756,440450042486
-717,483409404755
-1191,31888952851
-618,679282993078
202,531515359879
-180,100668042898
-533,111711472273
217,679979026318
-664,550311774015
-2263,76538766921
-1468,95256969333
-547,879563361406
-927,582543581724
-1126,24492450058
-1096,31803534925
-1674,08310085535
-1552,15571904182
231,110572248697
339,16875846684
-1263,97360439599
-984,394806742668
-158,408835351467
-660,756092011929
-1278,39642189443
-1629,12998632714
-2400,82170698047
-2283,56272301078
-323,492806226015
323,283742547035
-68,5237496159971
1250,13375854492
1775,16186457872
522,632463157177
-161,872932165861
-94,4205332137644
-628,580351814628
-1610,13128641248
-707,18975648284
1169,32138887048
1716,7528559193
1736,66547107697
827,70595741272
-357,146705240011
140,222524732351
1368,54104220122
1352,92496816814
610,782460063696
1121,12245160341
1106,62178376317
-177,648169457912
-216,355761885643
82,7897480130196
111,182667553425
1139,09984047711
2248,37823714316
1854,87515729666
1012,56026989222
860,540730178356
-779,102467849851
-2685,11176227778
-1933,91272622347
-821,663331329823
-627,514614641666
-3,23522642254829
616,880553692579
-9,29674959182739
-521,590042561293
1022,87020787597
1989,73106783628
1467,92223887891
1619,90527316928
1208,01684936881
241,742510676384
402,069714531302
874,259075671434
113,813596814871
-1002,91293156147
-98,5231169462204
1211,84591570497
1361,13400872797
1575,37991502881
962,240212202072
124,117088884115
810,717522442341
1788,15363446623
1135,39266175032
-721,182127475739
-1156,52211648226
-648,509630471468
-673,492358610034
-251,350247502327
-222,776357799768
-517,216102927923
368,439869701862
1491,88007380068
1148,13214117289
30,4403320252895
232,185443043709
258,667088091373
-681,490852288902
-476,355717688799
-221,410773098469
-556,870220839977
0,950765833258629
846,314792200923
451,518835872412
-123,852577060461
444,338558286428
-305,292002439499
-1754,16406556219
-955,136346787214
-173,809353709221
-732,273518145084
-861,165426656604
-504,408949553967
-797,650178492069
-838,264731645584
390,683348506689
69,9474352002144
-1683,66343521327
-1502,36856126785
-861,866410791874
-1511,11050459743
-2081,7787578702
-2176,88371040672
-2525,34978604317
-1981,23142012954
566,043782740831
1911,41612385213
1416,20664342865
1737,97588443756
1438,30234739184
68,5410887598991
-409,761328160763
-255,911070857197
-879,11836156249
-1984,11126297712
-806,273192942142
2089,3133854717
3509,19933655486
3246,46946583688
1678,97702780366
464,750085473061
1279,32676875591
2581,31937120855
2199,23394855857
934,415904939175
664,888167947531
-512,168777987361
-2337,04608277604
-1726,72056469321
-327,048482239246
245,791921615601
1126,2369146049
1935,63575072587
1332,58789283037
457,850742578506
581,572306364775
-692,772274404764
-2303,89544334263
-1210,94777971506
-19,4476085603237
-167,959771245718
80,2968294173479
558,23346760869
1,34378445148468
-410,754127323627
949,518481403589
1268,76010002196
-95,755854986608
-389,149899929762
-577,794458001852
-1078,21348139644
-653,490923210979
-98,1672099381685
-713,529496997595
-1472,36149710417
134,579691976309
2389,73559741676
3108,27558064461
3181,31788936257
2040,23624297976
657,784818977118
919,364819154143
1670,98925153166
967,736718088388
-736,191749364138
-766,429816991091
-166,249348402023
-506,040400452912
-7,74174159765244
325,268695086241
-35,2775929868221
639,467405185103
1671,00761221349
1264,25514933467
-5,36749261617661
188,653991281986
410,032526090741
-493,808765895665
-327,448729872704
-61,332601159811
-353,448821783066
334,456504374743
1351,16200827062
1016,97932958603
222,253954589367
405,359825402498
-643,75746871531
-2177,41252563149
-1314,61439937353
-469,563455671072
-920,873476713896
-820,366751760244
-247,541917778552
-459,836497724056
-532,965421497822
544,028569757938
-38,7064301967621
-2200,16219417751
-2409,50348675251
-1690,5250158608
-1904,64132705331
-2137,81922613084
-2153,25387909263
-2685,41595643759
-2462,52201595902
-339,017569810152
526,912961304188
-12,3916092924774
945,321282833815
1276,73684626818
-120,447855830193
-1034,91290597618
-1155,15276090056
-1673,15211993456
-2315,96067845821
-587,362662047148
2395,03215703368
3572,13822677359
3379,11091539264
1938,42540621758
402,332544744015
706,841481134295
1764,89123997465
1471,32655858994
10,2031177282333
-185,954646348953
10,0132290571928
-610,632637601346
-269,67030787468
11,6653510332108
-253,495468199253
585,699209228158
1784,59874735773
1512,46977624297
592,650481164455
842,489944159985
254,001366198063
-1434,76233009622
-1792,44884991646
-1720,55592703819
-1369,49182012677
103,843768790364
1259,85745127872
549,292192727327
-572,644913852215
365,796843498945
1162,0381680727
489,626494705677
375,575252890587
203,4201785326
37,3700045645237
877,173409894109
1477,06563500315
407,759609937668
-1102,31743988395
-384,58667320013
821,042805954814
732,912403427064
857,978978306055
580,529296755791
194,6731082201
986,689551070333
1712,68740949035
745,676412016153
-1089,95706692338
-1130,1500684917
-487,171642825007
-599,79356393218
254,973666131496
887,455090075731
514,121161192656
862,453099086881
1573,99509049207
1139,71590045094
538,429160743952
1110,41653418541
203,12943431735
-2284,63928375393
-2790,69097968936
-2015,88831198215
-1756,71904683113
-1377,67100583017
-986,413904212415
-1480,24323040247
-1437,21170809865
117,042167216539
-64,8347707390785
-1485,12699125707
-652,027800321579
317,861322760582
-453,557990431786
-1312,05400657654
-1710,13894131035
-2299,23567813635
-1734,65517672896
971,829662084579
2307,24838773906
1805,46138636768
2291,25145754218
2175,51803413033
766,496635735035
-2,40003149211407
-185,317622050643
-881,098444133997
-910,79468613863
1097,190602988
1953,59047290683
980,211965486407
1124,27422764897
1143,78473779559
409,957809388638
568,310803771019
1111,68375564367
475,12963077426
-724,646441042423
-101,082692861557
657,356578961015
98,1110401377082
567,037591010332
997,769801795483
526,443548768759
935,971120595932
1824,33467890322
1475,20020729303
288,230244904757
331,452451467514
121,133625641465
-1379,63670078665
-1609,12203323841
-1089,37212967873
-798,33989328146
280,176950842142
1432,2045603767
1131,84518751502
516,840905100107
896,562461584806
-253,891384616494
-2112,56992954761
-1329,09205412865
-54,484573841095
-57,5196837484837
95,4559806585312
436,32633343339
-97,6162666082382
-350,905472517014
650,613231986761
-57,5023639053106
-2254,80461677164
-2208,89515888691
-1059,05322155356
-1085,19880098104
-1402,51605373621
-1542,1488051638
-2190,60839277506
-1999,33828231692
18,0269320011139
530,146972954273
-349,241839140654
574,735160917044
1166,84307822585
37,1716230511665
-733,243833646178
-792,281824816018
-1294,16225743294
-1689,44929775596
-256,080392569304
865,395467892289
367,890647917986
713,673167288303
840,185100257397
-156,110762357712
-355,055457249284
191,038587212563
22,8081257641315
-154,831741124392
1051,59576645494
990,497481629252
-687,359899535775
-488,64377476275
360,608570933342
104,028210699558
133,748859152198
505,499904945493
3,32487413287163
-342,922349601984
469,013802945614
-196,225069046021
-1416,42316364869
-213,44022282958
826,328411877155
299,828253120184
122,287973925471
355,257600251585
-184,137704744935
-368,988902121782
819,824524134398
379,093880608678
-1060,71226404607
-247,268332347274
503,160596072674
-146,300124198198
-316,3952678442
14,8355834297836
-383,273581013083
-576,487717092037
982,033741146326
1544,48048435152
399,666929718107
297,048108667135
135,392364412546
-540,83542329073
-210,244529053569
403,581643495709
-148,557038545609
-722,646079272032
-22,8313576579094
-837,035993859172
-2976,46172583848
-2711,95614477992
-1214,18957948685
-634,904235780239
-277,033704772592
-85,9581050276756
-879,95261387527
-1455,75676700473
-367,022769331932
-181,197921365499
-1193,06776481494
-389,688279107213
625,75430431962
152,633263230324
-256,519849538803
-293,386250220239
-903,949455946684
-1064,00732293725
121,61180177331
-125,352426961064
-1335,69999898225
-420,999469712377
526,539394915104
-133,006807208061
-676,838278576732
-686,817085634917
-1020,75590126216
-515,110199272633
1673,40432575345
2140,12967261672
901,365706231445
1183,24707898498
1364,57710146904
450,35363766551
159,211932554841
370,153192739934
-143,638026967645
-464,90608805418
751,184806406498
1019,98966443539
54,3341197483242
330,694328933954
480,307086706161
-65,3567486405373
216,973117172718
854,218392185867
451,441733404994
-89,5447103977203
324,550158262253
-729,8748062253
-2455,46588508412
-1621,24237462878
-238,65999764204
5,62024727463722
372,948473125696
783,616656105965
230,464775159955
-125,199099779129
824,428730726242
221,107973575592
-1963,25660030544
-2129,75700254738
-1101,05923640728
-846,775367885828
-732,935443401337
-629,664762087166
-1246,3847206682
-1335,17066019773
90,1579527854919
-6,35164645314217
-1801,0237252675
-1724,59625597298
-623,617405951023
-559,340534627438
-873,715335175395
-1227,50756874308
-2055,67355509102
-1985,86954271793
-185,259340375662
225,35739775002
-591,184746518731
434,072089612484
1371,19209989905
616,741059273481
-200,016311183572
-638,126956805587
-1394,84073360264
-1216,24244597554
1261,7079435885
2864,01331222057
2508,29856724665
2858,13417454064
2766,70155709982
1528,43389943242
1026,9490532279
1181,60370771959
577,466378644109
-239,338787853718
794,644964039326
1793,55231762677
1064,63212984055
951,833755895495
1029,1943988204
624,639836490154
1280,75904132426
2432,29507528245
2172,83275707066
816,957542866468
449,719698190689
-227,659071691334
-1808,69575071335
-1526,9073228687
-512,926257997751
-295,537608832121
434,885896593332
1430,04043757915
1220,60502710938
680,398443490267
1426,54098796844
1204,14215378463
-196,123609825969
-231,699618279934
-205,358161836863
-520,550572961569
265,442988395691
1311,27546615154
1050,97941026092
451,859425753355
1218,10349932313
1001,1336902827
-513,825484953821
-502,558969020844
-188,022426009178
-352,2523034513
185,471548780799
681,071572825313
-120,093407452106
-981,316118448973
96,9148042500019
798,296550199389
157,184176541865
513,722719401121
751,541059225798
280,920765191317
480,154575228691
769,627414792776
-90,9128877222538
-904,397745639086
-325,52131524682
-1054,74463684857
-3016,39414998889
-2569,41171526909
-1019,54449781775
-769,928788423538
-921,862446367741
-968,133876524866
-1567,53057968616
-1694,06417897344
-64,7180587649345
686,560129478574
-326,461153246462
-204,426884144545
384,542239278555
-131,707403570414
-684,978804573417
-936,421723350883
-1636,64431577921
-1700,75757116079
-164,337829530239
74,0588767528534
-1348,03199783713
-1167,94220221043
-248,122694283724
-558,733504682779
-1149,0449911803
-1441,85990293697
-2026,6848488003
-1774,21918299794
79,7177744209766
324,382068663836
-1283,78825991601
-1040,3676763922
121,018961399794
-236,10512521863
-1151,42339064181
-1720,10512622818
-2421,14355872571
-2446,18720644712
1,05107888579369
2610,44918711483
3147,59401487559
3338,88388937712
2731,68075463176
1321,91149839759
1088,66451491416
1686,57766270638
1409,95576387644
486,07257014513
641,809963539243
339,153837241232
-1023,08877827972
-726,960273325443
168,193501859903
300,742616221309
1075,87868085504
2223,05211710557
2175,81462404132
1656,2965939343
1805,10340034962
186,803760401905
-2828,1339548789
-3184,89104691148
-1656,646777004
-727,421775907278
26,9631596952677
644,571804925799
210,22110016644
-67,5043812990189
1033,85532450676
806,520152777433
-1105,63530558348
-1275,90889495611
-259,499888181686
-98,4663396775723
-205,827996864915
-269,397582296282
-950,717848092318
-1060,86695888638
531,691114246845
898,801676243544
-514,104138560593
-144,88813534379
1259,6510360539
1176,58766013384
394,584201410413
-252,924656037241
-1204,90230546892
-1241,712970227
493,565093398094
706,622870743275
-898,763623565435
-449,548929750919
967,822394877672
680,144107609987
-220,175256744027
-704,062414627522
-1353,90190938115
-1539,09557074308
83,9146978855133
1198,17083258927
717,06015432626
1233,99370902777
1627,95321372151
637,538119077682
160,587855920196
525,056212194264
389,066555276513
150,105529993773
1040,73368704319
891,931865587831
-520,633982442319
-74,0491846203804
806,268062800169
374,254436731339
296,851810202003
858,348872251809
757,975832432508
586,409525901079
1430,83692076802
853,533150479198
-1480,22602155805
-2138,12992289662
-1417,69586387277
-1050,58828696609
-518,332945525646
62,8804069943726
-258,375556111336
-347,665971964598
794,416972219944
453,534187853336
-1355,38288922235
-916,535898461938
797,445069938898
909,319322317839
183,47478736937
-352,051515571773
-1225,47490365803
-1708,72257387638
152,622104376554
2439,94214211404
3006,42482999712
3239,19352445006
2488,75705906749
1016,92285531759
967,584540635347
1780,02069562674
1560,46039107442
256,74139726162
94,2800936102867
488,034888088703
109,782078977674
569,747355788946
964,218618899584
609,337208658457
1231,61929163337
2400,9597996287
2302,6803239882
1395,56601017714
1344,8701992929
271,165865942836
-2012,6623034589
-2078,37588194013
-958,236968904734
-641,061155319214
-85,1860458403826
706,510791771114
525,169167622924
198,076100736856
1237,99379038811
1166,89794538915
-482,388820238411
-323,099655538797
481,366301834583
109,110943973064
-60,4454264342785
163,223762996495
-352,027924090624
-691,805834889412
363,185025513172
132,78156080842
-1789,82611688599
-1762,00320366025
-491,41453742981
-445,434051811695
-852,471474200487
-1101,37897571549
-1878,63853731751
-2321,27132099867
-165,970704555511
2682,54420423508
3410,41402593628
3275,40964926779
2325,19227641821
812,64348834753
510,156732082367
980,680561449379
563,328581601381
-404,758502334356
34,8825677037239
284,632358729839
-797,528731644154
-498,698158025742
476,874106496572
526,901876866817
836,625673756003
1392,14068872482
916,473678261042
176,668721050024
840,534783422947
816,465597704053
-290,68756813556
417,574671566486
1342,80750337243
818,264419615269
614,649582579732
1037,48452754691
753,534874737263
290,991466790438
702,873763501644
-343,362225204706
-2882,3412909992
-3158,46415513754
-1724,65243479609
-1088,87832179666
-808,894671961665
-513,900390118361
-937,299308180809
-1017,63283830881
608,311695575714
1237,56758107245
125,876347269863
448,556241765618
1059,12952268124
134,62563085556
-659,900530219078
-741,824465692043
-1221,02618159354
-1893,54169651866
-733,399760663509
1006,12563097477
1337,06898673624
1725,67958259583
1399,46811112761
20,05415391922
-274,397567272186
400,980798002332
723,454981118441
29032,20389992
152316,476483226
358241,076394081
528258,752636001
562422,718882158
457808,964289889
332534,626584783
293997,674798757
312982,234295666
298746,284975529
232480,329723239
193184,975449741
214838,95445656
249493,586171031
255216,784982681
225045,465946436
223866,524834633
306178,385108992
405377,20730567
410928,279197216
313685,75690937
214456,751065016
165301,809987187
145354,685664654
135221,879182816
122778,669634342
150825,457994938
256948,689716697
368581,026630402
377311,276712894
284201,866551399
193350,182327271
148744,768785238
126618,898854256
104075,436496735
71282,4715518951
82802,2953042984
174514,433302402
270437,111899614
272013,274656296
193215,034081459
137464,332204819
132324,379556656
140863,350381851
133166,310333252
92045,8123207092
71784,9961605072
121321,58852005
182921,944599867
171093,568353653
103635,957180023
77591,3796577454
107381,9672966
145276,874331236
163755,139642715
134523,461494446
88022,5301856995
91013,698091507
122537,154506683
106897,061977386
48687,2941608429
34603,1780128479
80157,136885643
128208,31403017
142124,905221939
97743,9740848541
33452,0482158661
26206,8355979919
61625,6545417309
60968,5671052933
18295,9520969391
13466,6259460449
63109,1992387772
107499,799145699
101725,489682198
31555,5619678497
-39094,5167198181
-33276,6578464508
16774,271261692
23010,719786644
-58414,2605075836
-206294,925085068
-364842,383542061
-478003,912534237
-516038,320029259
-488958,052127838
-430176,118412018
-371170,861655235
-329306,40641734
-304953,233721733
-285909,413051605
-259834,547201157
-228567,593053818
-205382,456542373
-203691,153716087
-234107,344806671
-294207,900560379
-362476,358046532
-410261,52655983
-415161,462958336
-368738,379636765
-283776,928491592
-192592,772387505
-127966,012429476
-109602,115394592
-143781,630382538
-218757,950088501
-303792,415210724
-364432,4862113
-378719,119037628
-342743,866986275
-270103,462725639
-189618,82998085
-131294,966854572
-110841,406154871
-130455,148513794
-178235,124089241
-231259,90987587
-269019,305718184
-280960,264883637
-265895,443367481
-231885,078279972
-195134,049944401
-167770,517076492
-152518,533817247
-150093,1803689
-157992,766982555
-169280,337423325
-178870,661393881
-185643,636618853
-188952,877238661
-188923,128983855
-188496,340045929
-186309,163202763
-176599,286746144
-159766,872240722
-140870,236976981
-123935,612709999
-113834,135764122
-115101,626135468
-126924,929159522
-145686,297802448
-167200,386554241
-181593,122179508
-177789,029379249
-155539,475776553
-124840,471381903
-95973,6280884892
-77263,4045758843
-74621,2178611755
-87006,9281008244
-109643,874815941
-136486,910388827
-155712,673953474
-155718,919396639
-136714,243574619
-108503,115201592
-80816,1636486053
-61541,2741346061
-56666,6366726756
-65514,2769204378
-82424,1128423214
-102624,209475994
-118422,756212234
-120388,186800122
-108550,027677059
-89841,6352721453
-70022,0416478515
-54633,3695716262
-48635,2229362428
-51989,3656384945
-60713,6762439013
-72441,5760700703
-83186,4908210635
-86157,7015748695
-80745,7127585411
-71160,8032455444
-60084,4608530998
-50216,3944961131
-44634,0969429016
-43456,2430819469
-44461,880839467
-47852,9887282252
-52455,989587903
-54154,3822144568
-53326,3622866273
-51545,3868908174
-47962,2650056034
-43106,1713159978
-38732,6014895439
-34653,8687189519
-30315,7412654012
-28666,2019326016
-30216,372682929
-31363,4771003723
-32264,9973190427
-34230,130163461
-35360,5595188215
-34307,8102411032
-31596,4156742096
-26690,0105127692
-19383,4957277775
-13895,4674986005
-12047,5432150811
-11378,8658474088
-13000,8361580372
-17134,065854013
-20331,8150976449
-20971,093916893
-19719,6809889972
-16795,4071059227
-11000,0531089902
-4509,23881161213
-768,059388697147
711,929223805666
-507,593126237392
-3950,33771562576
-6351,41369095445
-6680,26639260538
-6011,72037854791
-4029,1867402792
-70,0365622639656
2799,6338429749
3762,15862707049
5591,3278876543
6734,0550250411
5666,14887860417
4486,35493296385
4148,95395943895
3983,39346149564
4899,95975637436
7653,67324152589
9086,90966039896
9090,5282209143
11103,1982655376
13310,2036504745
13396,2947657406
12928,7291072011
12714,0393403061
12126,0358432531
12286,1012511551
14461,0294207036
15918,0902617276
16162,7514050901
18027,731097132
19895,2865650058
20064,392817229
20061,8893482238
20275,5921024121
19785,4670255482
19279,8250826299
20726,5095677674
22253,9037298262
22225,2218670174
23069,2328445911
24235,6724700928
24538,8356302381
25298,8847841322
26260,9861622527
25932,1084729135
24974,9813678861
25848,8648182452
26822,057927385
26134,5834357301
26682,5590620339
28078,5036565959
28700,5914444029
29743,2446328849
30936,8355278745
30620,5253472924
29330,7540798187
29048,4807884991
28079,8345364779
25677,2656447161
25588,8911719024
27614,3833926618
29102,1382950246
30403,8168383092
31582,225523416
31498,3220902681
31069,9964379966
31850,5102033019
31756,5236929357
30633,9400804825
31464,8024166226
32786,6515262425
32711,1846978366
32657,8133314848
33025,7331861556
32794,1671134531
32761,4599628448
33729,450427562
32908,0067893714
30196,1704800092
29852,2962442786
31557,2465055287
32038,2462570965
31638,4729066789
31471,3948982432
31178,2712721527
31887,5220157206
34099,820625931
34414,7590993196
32834,4028691016
33224,2210275531
34344,818205297
33673,4061022103
32559,0169515759
32126,2830439284
31732,639817223
31802,2730145454
34195,8606053591
36952,7986164093
37390,6294599324
37232,6855696738
36519,2679190934
34931,302529633
34377,0343196392
34827,754325483
34624,6356891096
33823,8099036515
34059,3428897858
33840,7539938688
32242,883730093
32195,5005529225
33170,3031727672
33273,8980664313
33599,6915996373
34276,976754684
33962,8663167655
33214,1798422039
33485,9340790808
32870,2186476141
31175,5351906009
31485,5806345493
32513,6278946102
32346,0871314108
32321,2469398528
32716,5590720214
32387,6111420393
32097,5577495098
33045,7747046947
32765,8763245791
31229,3411278166
31538,3849347532
32137,8232958913
31471,4922764599
31137,8521371037
31296,5750155821
30677,6790849268
29908,0605279505
30969,0619768798
31938,4966905266
31405,9420288131
31824,8099144101
32133,3827674389
30977,9630654454
30349,9995440096
30562,4523436651
30043,7280701101
29104,5844165683
29790,2602629364
30274,6865906864
28981,3713075183
28737,9069826007
29035,0026784241
28408,9655067921
28449,3731081337
29199,7548775002
28913,7038395256
27650,9019261003
27332,7018579245
26721,3979753703
24764,4835978504
24291,0585538
24996,8756334186
25095,2254242301
25491,5943001211
26188,3903685287
25833,4894804955
25062,925270319
25462,1376525462
25067,4046581686
23501,3579551559
23755,0082094222
24555,9198232591
24009,1358536184
23524,588486895
23497,1289156899
22876,904917419
22425,3127063215
23161,4504255056
22676,329038471
21100,0527822748
21553,3118718565
22408,5465925336
21695,4967585206
20957,2129146159
20796,3143803626
20278,8364014328
20161,5548810959
21538,1008122861
21596,4016509056
19300,8400188088
18477,8516197354
19286,7606250048
19070,8287912309
18263,9027700275
17699,4653944634
16824,596244663
16592,0997969806
18237,7088194191
19154,266477257
18551,9344084668
19258,6282738298
19938,3026355803
18748,1562162042
17515,4105276167
17121,9992782902
16525,0126133263
15685,4111431241
16576,4423655868
18089,3332484365
17859,0200075777
17615,4628607035
17389,6876608133
16346,957834214
16091,853659302
16676,5199381132
16487,4308281839
15683,9175077379
16131,0323190689
16296,1114998758
14930,6845595511
14560,6024071723
14757,9162154198
14463,5702501535
14882,7889142781
15633,9205153007
15201,2971153557
14330,2995416224
14496,5054065287
13473,3134357333
11293,7895157784
11544,9360121638
12927,9622518122
13082,9310359061
13072,4312995821
